Reference: Inaniwa et al. (2018)
DOI: 10.1088/1361-6560/aabede
Model_Name: Kiefer-Chatterjee
Core_Radius_Type: energy-dependent
Cell_Type: HSG
Atomic_Number: 10
Domain_Radius_um: 0.28
Nucleus_Radius_um: 8.1
Alpha0_Gy-1: 0.174
Beta0_Gy-2: 0.0568
LET_MeV_cm: 6540
z0_Gy: 66.0
Data_Units: Dose [Gy], Survival fraction
Data:
2.2000E-01  8.5230E-01
6.2000E-01  6.6579E-01
1.0200E+00  5.2010E-01
1.4000E+00  3.9465E-01
1.7400E+00  3.1738E-01
2.2000E+00  2.2723E-01
2.5800E+00  1.7750E-01
3.0000E+00  1.2895E-01
3.5400E+00  8.8383E-02
4.1000E+00  5.8845E-02
4.7200E+00  3.7508E-02
5.2000E+00  2.6467E-02
5.8200E+00  1.6387E-02
6.4000E+00  1.0911E-02
6.9200E+00  7.2643E-03
7.5000E+00  4.6303E-03
8.0200E+00  3.1738E-03
8.5200E+00  2.1440E-03
9.1800E+00  1.2895E-03
