Reference: Inaniwa et al. (2018)
DOI: 10.1088/1361-6560/aabede
Model_Name: Kiefer-Chatterjee
Core_Radius_Type: energy-dependent
Cell_Type: HSG
Atomic_Number: 10
Domain_Radius_um: 0.28
Nucleus_Radius_um: 8.1
Alpha0_Gy-1: 0.174
Beta0_Gy-2: 0.0568
LET_MeV_cm: 3430
z0_Gy: 66.0
Data_Units: Dose [Gy], Survival fraction
Data:
1.6000E-01  8.5210E-01
4.8000E-01  5.9226E-01
9.6000E-01  3.5591E-01
1.3400E+00  2.2342E-01
1.7200E+00  1.4651E-01
2.1000E+00  9.6078E-02
2.6000E+00  5.2146E-02
3.1200E+00  2.7490E-02
3.6000E+00  1.5361E-02
4.0600E+00  8.5832E-03
4.6000E+00  4.3316E-03
5.0600E+00  2.4559E-03
5.5600E+00  1.3137E-03
6.0600E+00  6.8253E-04
6.4200E+00  4.1617E-04
6.8600E+00  2.4292E-04
7.3000E+00  1.3574E-04
