Reference: Inaniwa et al. (2018)
DOI: 10.1088/1361-6560/aabede
Model_Name: Kiefer-Chatterjee
Model_Version: stochastic
Core_Radius_Type: energy-dependent
Atomic_Number: 7
Domain_Radius_um: 0.28
Nucleus_Radius_um: 8.1
z0: 66.0
Data_Units: Energy [MeV/u], Dose-mean saturation-corrected specific energy [Gy]
Data:
2.159E-01  6.738E+00
3.056E-01  6.668E+00
4.408E-01  6.732E+00
5.895E-01  7.000E+00
8.667E-01  7.603E+00
1.130E+00  8.140E+00
1.502E+00  9.149E+00
1.934E+00  1.029E+01
2.413E+00  1.137E+01
2.844E+00  1.258E+01
3.526E+00  1.413E+01
4.344E+00  1.622E+01
5.185E+00  1.824E+01
5.959E+00  2.026E+01
6.892E+00  2.248E+01
7.872E+00  2.490E+01
9.048E+00  2.800E+01
1.040E+01  3.029E+01
1.173E+01  3.204E+01
1.365E+01  3.352E+01
1.520E+01  3.453E+01
1.724E+01  3.453E+01
1.957E+01  3.433E+01
2.178E+01  3.366E+01
2.380E+01  3.271E+01
2.567E+01  3.183E+01
2.804E+01  3.062E+01
3.161E+01  2.900E+01
3.542E+01  2.705E+01
3.968E+01  2.489E+01
4.617E+01  2.273E+01
5.304E+01  2.064E+01
6.056E+01  1.842E+01
7.273E+01  1.606E+01
8.304E+01  1.457E+01
9.422E+01  1.323E+01
1.069E+02  1.181E+01
1.252E+02  1.046E+01
1.466E+02  9.382E+00
1.794E+02  8.100E+00
2.182E+02  7.088E+00
2.792E+02  5.873E+00
3.617E+02  5.129E+00
4.400E+02  4.589E+00
5.454E+02  4.115E+00
6.803E+02  3.777E+00
8.759E+02  3.370E+00
