Reference: Inaniwa et al. (2018)
DOI: 10.1088/1361-6560/aabede
Model_Name: Kiefer-Chatterjee
Model_Version: stochastic
Core_Radius_Type: energy-dependent
Atomic_Number: 6
Domain_Radius_um: 0.28
Nucleus_Radius_um: 8.1
z0: 66.0
Data_Units: Energy [MeV/u], Dose-mean saturation-corrected specific energy [Gy]
Data:
2.145E-01  8.018E+00
2.512E-01  7.950E+00
3.017E-01  7.948E+00
3.885E-01  8.014E+00
4.877E-01  8.281E+00
5.858E-01  8.550E+00
7.037E-01  8.952E+00
8.241E-01  9.355E+00
9.899E-01  9.826E+00
1.259E+00  1.083E+01
1.541E+00  1.164E+01
1.898E+00  1.285E+01
2.309E+00  1.440E+01
2.670E+00  1.555E+01
3.069E+00  1.676E+01
3.417E+00  1.797E+01
3.733E+00  1.918E+01
4.264E+00  2.107E+01
4.688E+00  2.262E+01
5.320E+00  2.470E+01
6.000E+00  2.713E+01
6.766E+00  2.915E+01
7.300E+00  3.063E+01
7.926E+00  3.232E+01
8.825E+00  3.386E+01
1.008E+01  3.501E+01
1.115E+01  3.548E+01
1.218E+01  3.548E+01
1.331E+01  3.528E+01
1.472E+01  3.474E+01
1.588E+01  3.406E+01
1.779E+01  3.258E+01
2.057E+01  3.062E+01
2.276E+01  2.887E+01
2.599E+01  2.685E+01
3.024E+01  2.395E+01
3.496E+01  2.179E+01
4.172E+01  1.916E+01
4.674E+01  1.727E+01
5.404E+01  1.572E+01
6.288E+01  1.363E+01
7.225E+01  1.215E+01
8.787E+01  1.060E+01
1.096E+02  8.912E+00
1.429E+02  7.158E+00
1.805E+02  6.011E+00
2.429E+02  4.728E+00
3.167E+02  4.052E+00
4.344E+02  3.241E+00
6.072E+02  2.699E+00
8.870E+02  2.359E+00
