Reference: Inaniwa et al. (2018)
DOI: 10.1088/1361-6560/aabede
Model_Name: Kiefer-Chatterjee
Model_Version: stochastic
Core_Radius_Type: energy-dependent
Atomic_Number: 1
Domain_Radius_um: 0.28
Nucleus_Radius_um: 8.1
z0: 66.0
Data_Units: Energy [MeV/u], Dose-mean saturation-corrected specific energy [Gy]
Data:
2.056E-01  3.450E+01
2.289E-01  3.329E+01
2.548E-01  3.214E+01
2.965E-01  3.039E+01
3.539E-01  2.843E+01
4.092E-01  2.648E+01
4.672E-01  2.493E+01
5.334E-01  2.331E+01
6.168E-01  2.155E+01
7.042E-01  2.000E+01
8.194E-01  1.825E+01
9.475E-01  1.656E+01
1.109E+00  1.495E+01
1.307E+00  1.339E+01
1.512E+00  1.225E+01
1.816E+00  1.070E+01
2.236E+00  9.011E+00
2.807E+00  7.459E+00
3.502E+00  6.042E+00
4.126E+00  5.097E+00
4.956E+00  4.287E+00
5.878E+00  3.612E+00
7.240E+00  3.004E+00
9.089E+00  2.328E+00
1.193E+01  1.854E+00
1.625E+01  1.380E+00
2.498E+01  9.053E-01
4.011E+01  6.320E-01
6.734E+01  3.583E-01
1.116E+02  2.196E-01
1.874E+02  8.068E-02
