Reference: Inaniwa et al. (2018)
DOI: 10.1088/1361-6560/aabede
Model_Name: Kiefer-Chatterjee
Model_Version: stochastic
Core_Radius_Type: energy-dependent
Atomic_Number: 9
Domain_Radius_um: 0.28
Nucleus_Radius_um: 8.1
z0: 66.0
Data_Units: Energy [MeV/u], Dose-mean saturation-corrected specific energy [Gy]
Data:
2.145E-01  5.256E+00
3.275E-01  5.117E+00
5.260E-01  5.046E+00
8.721E-01  5.379E+00
1.258E+00  6.050E+00
1.630E+00  6.655E+00
2.194E+00  7.663E+00
3.106E+00  9.210E+00
4.000E+00  1.042E+01
5.054E+00  1.190E+01
5.994E+00  1.318E+01
7.155E+00  1.466E+01
8.815E+00  1.749E+01
1.052E+01  1.991E+01
1.225E+01  2.194E+01
1.373E+01  2.382E+01
1.577E+01  2.625E+01
1.779E+01  2.840E+01
1.968E+01  3.002E+01
2.234E+01  3.163E+01
2.487E+01  3.264E+01
2.840E+01  3.345E+01
3.326E+01  3.345E+01
3.727E+01  3.278E+01
4.149E+01  3.190E+01
4.619E+01  3.055E+01
5.274E+01  2.893E+01
6.060E+01  2.691E+01
6.789E+01  2.536E+01
7.751E+01  2.340E+01
8.575E+01  2.178E+01
9.607E+01  2.017E+01
1.097E+02  1.835E+01
1.237E+02  1.673E+01
1.412E+02  1.551E+01
1.685E+02  1.342E+01
2.062E+02  1.174E+01
2.430E+02  1.052E+01
2.882E+02  9.376E+00
3.483E+02  8.432E+00
4.318E+02  7.419E+00
5.386E+02  6.609E+00
7.481E+02  5.797E+00
9.273E+02  5.391E+00
