Reference: Inaniwa et al. (2018)
DOI: 10.1088/1361-6560/aabede
Model_Name: Kiefer-Chatterjee
Model_Version: stochastic
Core_Radius_Type: energy-dependent
Atomic_Number: 5
Domain_Radius_um: 0.28
Nucleus_Radius_um: 8.1
z0: 66.0
Data_Units: Energy [MeV/u], Dose-mean saturation-corrected specific energy [Gy]
Data:
2.242E-01  9.905E+00
2.924E-01  1.004E+01
4.061E-01  1.017E+01
5.296E-01  1.071E+01
7.356E-01  1.165E+01
9.412E-01  1.272E+01
1.189E+00  1.380E+01
1.541E+00  1.548E+01
1.899E+00  1.710E+01
2.310E+00  1.912E+01
2.757E+00  2.141E+01
3.209E+00  2.383E+01
3.759E+00  2.673E+01
4.266E+00  2.929E+01
4.632E+00  3.104E+01
5.158E+00  3.293E+01
5.707E+00  3.441E+01
6.315E+00  3.562E+01
6.987E+00  3.636E+01
7.928E+00  3.670E+01
8.827E+00  3.636E+01
9.704E+00  3.562E+01
1.080E+01  3.447E+01
1.203E+01  3.312E+01
1.314E+01  3.177E+01
1.444E+01  3.009E+01
1.598E+01  2.827E+01
1.767E+01  2.645E+01
1.993E+01  2.463E+01
2.275E+01  2.233E+01
2.533E+01  2.058E+01
2.837E+01  1.896E+01
3.199E+01  1.708E+01
3.722E+01  1.519E+01
4.442E+01  1.290E+01
5.335E+01  1.114E+01
6.247E+01  9.591E+00
7.502E+01  8.309E+00
9.067E+01  7.095E+00
1.131E+02  5.947E+00
1.429E+02  4.867E+00
1.899E+02  3.989E+00
2.476E+02  3.313E+00
3.395E+02  2.704E+00
4.598E+02  2.230E+00
6.675E+02  1.957E+00
9.448E+02  1.618E+00
