Reference: Inaniwa et al. (2018)
DOI: 10.1088/1361-6560/aabede
Model_Name: Kiefer-Chatterjee
Model_Version: stochastic
Core_Radius_Type: energy-dependent
Atomic_Number: 9
Domain_Radius_um: 0.28
Nucleus_Radius_um: 8.1
z0_Gy: 66.0
Data_Units: Energy [MeV/u], Dose-mean specific energy [Gy]
Data:
2.185E-01  9.952E-01
2.765E-01  1.025E+00
3.383E-01  1.042E+00
4.083E-01  1.050E+00
4.797E-01  1.050E+00
5.988E-01  1.042E+00
7.323E-01  1.026E+00
8.431E-01  1.000E+00
9.970E-01  9.685E-01
1.171E+00  9.348E-01
1.376E+00  9.011E-01
1.659E+00  8.437E-01
1.949E+00  7.923E-01
2.243E+00  7.428E-01
2.652E+00  6.874E-01
3.136E+00  6.280E-01
3.707E+00  5.706E-01
4.383E+00  5.152E-01
5.217E+00  4.539E-01
6.422E+00  3.945E-01
7.696E+00  3.430E-01
9.665E+00  2.777E-01
1.214E+01  2.321E-01
1.598E+01  1.806E-01
2.391E+01  1.250E-01
3.389E+01  9.320E-02
4.709E+01  6.335E-02
6.632E+01  4.534E-02
1.112E+02  2.720E-02
1.792E+02  1.700E-02
