Reference: Inaniwa et al. (2018)
DOI: 10.1088/1361-6560/aabede
Model_Name: Kiefer-Chatterjee
Model_Version: stochastic
Core_Radius_Type: energy-dependent
Atomic_Number: 3
Domain_Radius_um: 0.28
Nucleus_Radius_um: 8.1
z0_Gy: 66.0
Data_Units: Energy [MeV/u], Dose-mean specific energy [Gy]
Data:
2.173E-01  2.804E-01
2.881E-01  2.703E-01
3.923E-01  2.523E-01
5.600E-01  2.303E-01
7.885E-01  1.985E-01
1.031E+00  1.687E-01
1.349E+00  1.468E-01
1.887E+00  1.169E-01
2.468E+00  9.699E-02
3.668E+00  7.302E-02
5.562E+00  4.903E-02
8.491E+00  3.689E-02
1.523E+01  2.266E-02
2.961E+01  1.035E-02
5.420E+01  5.982E-03
