SourceProgram=geant4_11_3_0
Target=WATER_LIQUID
IonizationPotential=78.0
Ion=H
AtomicNumber=1
MassNumber=1
E [MeV/u]	dEdx [MeV/cm]
0.1		814.5
0.101393		813.099
0.102804		811.602
0.104236		810.007
0.105688		808.314
0.107159		806.522
0.108652		804.632
0.110165		802.644
0.111699		800.557
0.113254		798.372
0.114831		796.09
0.11643		793.711
0.118052		791.237
0.119696		788.668
0.121362		786.007
0.123052		783.255
0.124766		780.414
0.126503		777.488
0.128265		774.478
0.130051		771.389
0.131862		768.223
0.133698		764.985
0.13556		761.68
0.137448		758.312
0.139362		754.888
0.141303		751.413
0.14327		747.895
0.145265		744.34
0.147288		740.756
0.149339		737.153
0.151419		733.513
0.153528		729.853
0.155665		726.187
0.157833		722.513
0.160031		718.832
0.16226		715.144
0.164519		711.45
0.16681		707.749
0.169133		704.042
0.171488		700.327
0.173876		696.606
0.176298		692.878
0.178753		689.143
0.181242		685.401
0.183766		681.651
0.186325		677.893
0.188919		674.127
0.19155		670.351
0.194217		666.566
0.196922		662.77
0.199664		658.963
0.202445		655.133
0.205264		651.289
0.208122		647.433
0.21102		643.567
0.213959		639.69
0.216938		635.804
0.219959		631.908
0.223022		628.004
0.226128		624.093
0.229277		620.174
0.23247		616.249
0.235707		612.318
0.238989		608.381
0.242317		604.44
0.245692		600.496
0.249113		596.548
0.252582		592.598
0.256099		588.645
0.259666		584.692
0.263282		580.738
0.266948		576.784
0.270665		572.831
0.274434		568.879
0.278256		564.93
0.282131		560.982
0.28606		557.038
0.290043		553.098
0.294082		549.162
0.298177		545.231
0.302329		541.316
0.30654		537.417
0.310808		533.524
0.315136		529.638
0.319525		525.761
0.323974		521.892
0.328486		518.033
0.33306		514.183
0.337698		510.344
0.342401		506.515
0.347169		502.698
0.352003		498.893
0.356905		495.099
0.361875		491.318
0.366914		487.549
0.372024		483.792
0.377204		480.048
0.382457		476.317
0.387783		472.598
0.393183		468.891
0.398658		465.196
0.40421		461.507
0.409838		457.827
0.415546		454.16
0.421332		450.506
0.427199		446.865
0.433148		443.238
0.43918		439.625
0.445296		436.028
0.451497		432.445
0.457784		428.878
0.464159		425.327
0.470622		421.792
0.477176		418.272
0.483821		414.769
0.490558		411.282
0.49739		407.81
0.504316		404.354
0.511339		400.913
0.518459		397.488
0.525679		394.08
0.532999		390.69
0.540422		387.316
0.547947		383.961
0.555578		380.624
0.563314		377.306
0.571159		374.005
0.579112		370.724
0.587177		367.461
0.595353		364.216
0.603644		360.987
0.61205		357.774
0.620573		354.579
0.629215		351.404
0.637977		348.249
0.646861		345.114
0.655869		342
0.665002		338.908
0.674262		335.838
0.683652		332.79
0.693172		329.764
0.702824		326.761
0.712612		323.78
0.722535		320.822
0.732597		317.886
0.742798		314.972
0.753142		312.081
0.76363		309.21
0.774264		306.36
0.785046		303.531
0.795978		300.72
0.807062		297.939
0.818301		295.183
0.829696		292.445
0.84125		289.726
0.852964		287.027
0.864842		284.347
0.876886		281.687
0.889097		279.046
0.901478		276.426
0.914031		273.826
0.926759		271.246
0.939665		268.686
0.95275		266.145
0.966017		263.623
0.97947		261.121
0.993109		258.636
1.00694		256.162
1.02096		253.7
1.03518		251.255
1.04959		248.828
1.06421		246.42
1.07903		244.032
1.09405		241.664
1.10929		239.316
1.12474		236.99
1.1404		234.684
1.15628		232.401
1.17238		230.139
1.18871		227.9
1.20526		225.683
1.22204		223.488
1.23906		221.317
1.25632		219.167
1.27381		217.04
1.29155		214.936
1.30954		212.853
1.32777		210.791
1.34626		208.75
1.36501		206.73
1.38402		204.728
1.40329		202.745
1.42283		200.778
1.44264		198.828
1.46273		196.892
1.4831		194.968
1.50376		193.06
1.5247		191.187
1.54593		189.324
1.56746		187.471
1.58928		185.629
1.61141		183.799
1.63385		181.979
1.65661		180.172
1.67967		178.378
1.70307		176.596
1.72678		174.827
1.75083		173.072
1.77521		171.33
1.79993		169.603
1.82499		167.889
1.85041		166.189
1.87617		164.504
1.9023		162.833
1.92879		161.176
1.95565		159.534
1.98288		157.905
2.0105		156.286
2.03849		154.675
2.06688		153.077
2.09566		151.494
2.12485		149.926
2.15443		148.373
2.18444		146.836
2.21486		145.315
2.2457		143.81
2.27697		142.322
2.30868		140.85
2.34083		139.396
2.37342		137.958
2.40648		136.538
2.43999		135.135
2.47396		133.749
2.50842		132.38
2.54335		131.027
2.57876		129.692
2.61467		128.372
2.65108		127.069
2.688		125.78
2.72543		124.507
2.76339		123.247
2.80187		122.001
2.84088		120.767
2.88044		119.544
2.92056		118.331
2.96123		117.126
3.00246		115.93
3.04427		114.755
3.08666		113.586
3.12965		112.423
3.17323		111.267
3.21742		110.119
3.26222		108.977
3.30765		107.844
3.35371		106.718
3.40041		105.601
3.44776		104.493
3.49578		103.393
3.54446		102.303
3.59381		101.222
3.64386		100.15
3.6946		99.0887
3.74605		98.0371
3.79822		96.9957
3.85111		95.9646
3.90474		94.9439
3.95911		93.9337
4.01424		92.9334
4.07014		91.9415
4.12682		90.9602
4.18429		89.9897
4.24256		89.03
4.30164		88.0811
4.36154		87.143
4.42227		86.2156
4.48386		85.2989
4.5463		84.3927
4.6096		83.4967
4.6738		82.6107
4.73888		81.7345
4.80487		80.8676
4.87178		80.0096
4.93962		79.16
5.00841		78.3181
5.07815		77.4834
5.14887		76.656
5.22057		75.8361
5.29327		75.0237
5.36698		74.219
5.44171		73.4219
5.51749		72.6325
5.59433		71.8509
5.67223		71.0769
5.75122		70.3106
5.83131		69.5518
5.91251		68.8003
5.99484		68.056
6.07832		67.3174
6.16297		66.5858
6.24879		65.8614
6.3358		65.1444
6.42403		64.4349
6.51349		63.7329
6.60419		63.0385
6.69616		62.3518
6.78941		61.6728
6.88395		61.0015
6.97981		60.3378
7.07701		59.6817
7.17556		59.0331
7.27548		58.3919
7.3768		57.7579
7.47952		57.1308
7.58368		56.5104
7.68928		55.8965
7.79636		55.2886
7.90493		54.6864
8.01501		54.09
8.12662		53.5028
8.23979		52.9205
8.35453		52.3433
8.47087		51.7711
8.58883		51.2043
8.70843		50.6427
8.8297		50.0864
8.95266		49.5355
9.07733		48.99
9.20373		48.45
9.3319		47.9152
9.46185		47.3859
9.59361		46.8618
9.7272		46.3429
9.86266		45.829
10		45.32
10.1393		44.8129
10.2804		44.3107
10.4236		43.8135
10.5688		43.3213
10.7159		42.8344
10.8652		42.3528
11.0165		41.8767
11.1699		41.4061
11.3254		40.9412
11.4831		40.482
11.643		40.0286
11.8052		39.581
11.9696		39.1393
12.1362		38.7035
12.3052		38.2735
12.4766		37.8493
12.6503		37.431
12.8265		37.0183
13.0051		36.6113
13.1862		36.2098
13.3698		35.8136
13.556		35.4225
13.7448		35.0364
13.9362		34.6549
14.1303		34.2778
14.327		33.9047
14.5265		33.5353
14.7288		33.169
14.9339		32.8055
15.1419		32.449
15.3528		32.0968
15.5665		31.747
15.7833		31.3995
16.0031		31.0544
16.226		30.7119
16.4519		30.3721
16.681		30.035
16.9133		29.7006
17.1488		29.3692
17.3876		29.0406
17.6298		28.7151
17.8753		28.3926
18.1242		28.0732
18.3766		27.7569
18.6325		27.4438
18.8919		27.1339
19.155		26.8272
19.4217		26.5236
19.6922		26.2232
19.9664		25.9259
20.2445		25.6298
20.5264		25.3367
20.8122		25.0467
21.102		24.7601
21.3959		24.4768
21.6938		24.1969
21.9959		23.9206
22.3022		23.6479
22.6128		23.3787
22.9277		23.1133
23.247		22.8515
23.5707		22.5934
23.8989		22.3391
24.2317		22.0885
24.5692		21.8416
24.9113		21.5983
25.2582		21.3588
25.6099		21.1228
25.9666		20.8904
26.3282		20.6614
26.6948		20.4358
27.0665		20.2133
27.4434		19.9939
27.8256		19.7774
28.2131		19.5636
28.606		19.3522
29.0043		19.1431
29.4082		18.9358
29.8177		18.7302
30.2329		18.5276
30.654		18.3277
31.0808		18.1289
31.5136		17.9315
31.9525		17.7355
32.3974		17.5408
32.8486		17.3477
33.306		17.1561
33.7698		16.9662
34.2401		16.7779
34.7169		16.5913
35.2003		16.4065
35.6905		16.2235
36.1875		16.0424
36.6914		15.8632
37.2024		15.686
37.7204		15.5107
38.2457		15.3375
38.7783		15.1663
39.3183		14.9972
39.8658		14.8303
40.421		14.665
40.9838		14.5017
41.5546		14.3406
42.1332		14.1816
42.7199		14.0248
43.3148		13.87
43.918		13.7174
44.5296		13.5669
45.1497		13.4184
45.7784		13.2719
46.4159		13.1274
47.0622		12.9847
47.7176		12.8439
48.3821		12.7047
49.0558		12.5672
49.739		12.4311
50.4316		12.2964
51.1339		12.163
51.8459		12.0309
52.5679		11.9001
53.2999		11.7708
54.0422		11.6428
54.7947		11.5162
55.5578		11.391
56.3314		11.2672
57.1159		11.1448
57.9112		11.0238
58.7177		10.9042
59.5353		10.7859
60.3644		10.6689
61.205		10.553
62.0573		10.4385
62.9215		10.3254
63.7977		10.2136
64.6861		10.1032
65.5869		9.9943
66.5002		9.88676
67.4262		9.78065
68.3652		9.67595
69.3172		9.57265
70.2824		9.47076
71.2612		9.37023
72.2535		9.27106
73.2597		9.1732
74.2798		9.07663
75.3142		8.98128
76.363		8.88712
77.4264		8.79406
78.5046		8.70204
79.5978		8.61097
80.7062		8.5213
81.8301		8.43278
82.9696		8.34512
84.125		8.25834
85.2964		8.17245
86.4842		8.08746
87.6886		8.00338
88.9097		7.92023
90.1478		7.83799
91.4031		7.75667
92.6759		7.67627
93.9665		7.59679
95.275		7.5182
96.6017		7.44051
97.947		7.36367
99.3109		7.28769
100.694		7.21229
102.096		7.13747
103.518		7.06347
104.959		6.99033
106.421		6.91805
107.903		6.84666
109.405		6.77617
110.929		6.70661
112.474		6.63798
114.04		6.57029
115.628		6.50357
117.238		6.43781
118.871		6.37302
120.526		6.3092
122.204		6.24636
123.906		6.18448
125.632		6.12357
127.381		6.06361
129.155		6.00458
130.954		5.94647
132.777		5.88925
134.626		5.8329
136.501		5.77738
138.402		5.72264
140.329		5.66865
142.283		5.61535
144.264		5.56269
146.273		5.51059
148.31		5.45897
150.376		5.40796
152.47		5.35819
154.593		5.30878
156.746		5.25975
158.928		5.21112
161.141		5.16289
163.385		5.11508
165.661		5.06771
167.967		5.02078
170.307		4.9743
172.678		4.92829
175.083		4.88276
177.521		4.8377
179.993		4.79314
182.499		4.74907
185.041		4.70551
187.617		4.66245
190.23		4.61989
192.879		4.57785
195.565		4.5363
198.288		4.49526
201.05		4.45459
203.849		4.41422
206.688		4.37435
209.566		4.335
212.485		4.29617
215.443		4.25788
218.444		4.22014
221.486		4.18296
224.57		4.14634
227.697		4.11028
230.868		4.07481
234.083		4.03991
237.342		4.00559
240.648		3.97186
243.999		3.9387
247.396		3.90612
250.842		3.8741
254.335		3.84266
257.876		3.81176
261.467		3.7814
265.108		3.75157
268.8		3.72224
272.543		3.6934
276.339		3.66502
280.187		3.63706
284.088		3.60951
288.044		3.58231
292.056		3.55543
296.123		3.52882
300.246		3.50247
304.427		3.47673
308.666		3.45118
312.965		3.42582
317.323		3.40067
321.742		3.37573
326.222		3.35102
330.765		3.32653
335.371		3.30229
340.041		3.2783
344.776		3.25456
349.578		3.2311
354.446		3.20791
359.381		3.185
364.386		3.16238
369.46		3.14007
374.605		3.11805
379.822		3.09635
385.111		3.07497
390.474		3.05392
395.911		3.03319
401.424		3.01277
407.014		2.99264
412.682		2.97285
418.429		2.9534
424.256		2.93428
430.164		2.91549
436.154		2.89704
442.227		2.87892
448.386		2.86112
454.63		2.84363
460.96		2.82645
467.38		2.80957
473.888		2.79297
480.487		2.77665
487.178		2.76057
493.962		2.74474
500.841		2.72911
507.815		2.71369
514.887		2.69846
522.057		2.68343
529.327		2.66861
536.698		2.654
544.171		2.6396
551.749		2.62542
559.433		2.61145
567.223		2.59769
575.122		2.58415
583.131		2.57082
591.251		2.5577
599.484		2.5448
607.832		2.53207
616.297		2.51954
624.879		2.50724
633.58		2.49514
642.403		2.48326
651.349		2.4716
660.419		2.46016
669.616		2.44894
678.941		2.43794
688.395		2.42715
697.981		2.41659
707.701		2.40624
717.556		2.3961
727.548		2.38616
737.68		2.37643
747.952		2.36689
758.368		2.35754
768.928		2.34837
779.636		2.33937
790.493		2.33053
801.501		2.32184
812.662		2.31339
823.979		2.30507
835.453		2.2969
847.087		2.28886
858.883		2.28096
870.843		2.2732
882.97		2.26557
895.266		2.25809
907.733		2.25075
920.373		2.24354
933.19		2.23647
946.185		2.22953
959.361		2.22271
972.72		2.21603
986.266		2.20946
1000		2.203