SourceProgram=geant4_11_3_0
Target=WATER_LIQUID
IonizationPotential=78.0
Ion=B
AtomicNumber=5
MassNumber=10
E [MeV/u]	dEdx [MeV/cm]
0.1		5292.69
0.101393		5322.25
0.102804		5352.22
0.104236		5382.61
0.105688		5413.42
0.107159		5444.66
0.108652		5476.34
0.110165		5508.45
0.111699		5541.02
0.113254		5574.03
0.114831		5607.51
0.11643		5641.46
0.118052		5675.87
0.119696		5710.77
0.121362		5746.15
0.123052		5782.02
0.124766		5816.72
0.126503		5842.81
0.128265		5869.26
0.130051		5896.09
0.131862		5923.29
0.133698		5950.86
0.13556		5978.82
0.137448		6007.17
0.139362		6035.92
0.141303		6065.06
0.14327		6094.61
0.145265		6124.57
0.147288		6154.95
0.149339		6185.76
0.151419		6216.99
0.153528		6248.66
0.155665		6280.76
0.157833		6306.96
0.160031		6327.39
0.16226		6348.1
0.164519		6369.1
0.16681		6390.39
0.169133		6411.97
0.171488		6433.86
0.173876		6456.05
0.176298		6478.55
0.178753		6501.37
0.181242		6524.5
0.183766		6547.95
0.186325		6571.74
0.188919		6595.85
0.19155		6620.3
0.194217		6645.08
0.196922		6670.22
0.199664		6683.67
0.202445		6695.39
0.205264		6707.27
0.208122		6719.32
0.21102		6731.54
0.213959		6743.92
0.216938		6756.48
0.219959		6769.21
0.223022		6782.12
0.226128		6795.21
0.229277		6808.49
0.23247		6821.94
0.235707		6835.59
0.238989		6849.42
0.242317		6863.45
0.245692		6877.67
0.249113		6888.68
0.252582		6887.29
0.256099		6885.88
0.259666		6884.46
0.263282		6883.01
0.266948		6881.55
0.270665		6880.06
0.274434		6878.56
0.278256		6877.03
0.282131		6875.48
0.28606		6873.91
0.290043		6872.32
0.294082		6870.7
0.298177		6869.07
0.302329		6867.41
0.30654		6865.73
0.310808		6864.02
0.315136		6855.05
0.319525		6840.38
0.323974		6825.52
0.328486		6810.45
0.33306		6795.16
0.337698		6779.67
0.342401		6763.95
0.347169		6748.02
0.352003		6731.87
0.356905		6715.5
0.361875		6698.89
0.366914		6682.05
0.372024		6664.98
0.377204		6647.67
0.382457		6630.12
0.387783		6612.33
0.393183		6594.29
0.398658		6575.4
0.40421		6556.2
0.409838		6536.74
0.415546		6517
0.421332		6496.99
0.427199		6476.7
0.433148		6456.12
0.43918		6435.26
0.445296		6414.11
0.451497		6392.66
0.457784		6370.92
0.464159		6348.87
0.470622		6326.52
0.477176		6303.85
0.483821		6280.87
0.490558		6257.57
0.49739		6234.61
0.504316		6213.15
0.511339		6191.4
0.518459		6169.34
0.525679		6146.97
0.532999		6124.29
0.540422		6101.29
0.547947		6077.98
0.555578		6054.34
0.563314		6030.37
0.571159		6006.07
0.579112		5981.43
0.587177		5956.44
0.595353		5931.11
0.603644		5905.42
0.61205		5879.38
0.620573		5852.98
0.629215		5828.84
0.637977		5805.98
0.646861		5782.81
0.655869		5759.31
0.665002		5735.48
0.674262		5711.33
0.683652		5686.84
0.693172		5662
0.702824		5636.82
0.712612		5611.29
0.722535		5585.41
0.732597		5559.16
0.742798		5532.55
0.753142		5505.57
0.76363		5478.21
0.774264		5450.47
0.785046		5422.35
0.795978		5398.21
0.807062		5373.87
0.818301		5349.19
0.829696		5324.17
0.84125		5298.8
0.852964		5273.07
0.864842		5246.99
0.876886		5220.54
0.889097		5193.72
0.901478		5166.53
0.914031		5138.97
0.926759		5111.01
0.939665		5082.67
0.95275		5053.94
0.966017		5024.8
0.97947		4995.26
0.993109		4967.15
1.00694		4942.55
1.02096		4917.61
1.03518		4892.32
1.04959		4866.67
1.06421		4840.67
1.07903		4814.31
1.09405		4787.58
1.10929		4760.48
1.12474		4733
1.1404		4705.14
1.15628		4676.89
1.17238		4648.25
1.18871		4619.21
1.20526		4589.76
1.22204		4559.9
1.23906		4529.63
1.25632		4502.89
1.27381		4477.71
1.29155		4452.18
1.30954		4426.3
1.32777		4400.06
1.34626		4373.45
1.36501		4346.47
1.38402		4319.11
1.40329		4291.37
1.42283		4263.25
1.44264		4234.73
1.46273		4205.82
1.4831		4176.51
1.50376		4146.78
1.5247		4116.65
1.54593		4086.09
1.56746		4055.25
1.58928		4030.12
1.61141		4004.63
1.63385		3978.79
1.65661		3952.6
1.67967		3926.03
1.70307		3899.1
1.72678		3871.79
1.75083		3844.1
1.77521		3816.02
1.79993		3787.56
1.82499		3758.69
1.85041		3729.43
1.87617		3699.76
1.9023		3669.67
1.92879		3639.17
1.95565		3608.24
1.98288		3579.55
2.0105		3498.57
2.03849		3469.73
2.06688		3440.98
2.09566		3412.31
2.12485		3383.75
2.15443		3355.31
2.18444		3326.99
2.21486		3298.82
2.2457		3270.81
2.27697		3242.95
2.30868		3215.28
2.34083		3187.78
2.37342		3160.47
2.40648		3133.37
2.43999		3106.46
2.47396		3079.75
2.50842		3053.26
2.54335		3026.96
2.57876		3000.88
2.61467		2975.12
2.65108		2949.56
2.688		2924.19
2.72543		2898.98
2.76339		2873.92
2.80187		2849
2.84088		2824.2
2.88044		2799.49
2.92056		2774.85
2.96123		2750.25
3.00246		2725.87
3.04427		2701.66
3.08666		2677.47
3.12965		2653.3
3.17323		2629.16
3.21742		2605.07
3.26222		2581.04
3.30765		2557.07
3.35371		2533.19
3.40041		2509.39
3.44776		2485.69
3.49578		2462.09
3.54446		2438.61
3.59381		2415.26
3.64386		2392.04
3.6946		2368.96
3.74605		2346.03
3.79822		2323.25
3.85111		2300.63
3.90474		2278.17
3.95911		2255.89
4.01424		2233.73
4.07014		2211.7
4.12682		2189.84
4.18429		2168.16
4.24256		2146.68
4.30164		2125.39
4.36154		2104.29
4.42227		2083.39
4.48386		2062.68
4.5463		2042.17
4.6096		2021.84
4.6738		2001.69
4.73888		1981.73
4.80487		1961.93
4.87178		1942.29
4.93962		1922.8
5.00841		1903.44
5.07815		1884.21
5.14887		1865.11
5.22057		1846.15
5.29327		1827.34
5.36698		1808.67
5.44171		1790.14
5.51749		1771.77
5.59433		1753.55
5.67223		1735.47
5.75122		1717.55
5.83131		1699.78
5.91251		1682.15
5.99484		1664.64
6.07832		1647.26
6.16297		1630.02
6.24879		1612.93
6.3358		1596
6.42403		1579.22
6.51349		1562.6
6.60419		1546.15
6.69616		1529.86
6.78941		1513.73
6.88395		1497.77
6.97981		1481.98
7.07701		1466.34
7.17556		1450.88
7.27548		1435.57
7.3768		1420.44
7.47952		1405.45
7.58368		1390.6
7.68928		1375.89
7.79636		1361.31
7.90493		1346.84
8.01501		1332.55
8.12662		1318.42
8.23979		1304.39
8.35453		1290.48
8.47087		1276.68
8.58883		1262.99
8.70843		1249.42
8.8297		1235.97
8.95266		1222.64
9.07733		1209.44
9.20373		1196.35
9.3319		1183.38
9.46185		1170.54
9.59361		1157.81
9.7272		1145.2
9.86266		1132.7
10		1120.27
10.1393		1107.92
10.2804		1095.68
10.4236		1083.56
10.5688		1071.55
10.7159		1059.67
10.8652		1047.92
11.0165		1036.29
11.1699		1024.79
11.3254		1013.43
11.4831		1002.21
11.643		991.125
11.8052		980.178
11.9696		969.371
12.1362		958.704
12.3052		948.178
12.4766		937.79
12.6503		927.541
12.8265		917.428
13.0051		907.449
13.1862		897.6
13.3698		887.877
13.556		878.276
13.7448		868.79
13.9362		859.413
14.1303		850.137
14.327		840.953
14.5265		831.851
14.7288		822.821
14.9339		813.877
15.1419		805.128
15.3528		796.432
15.5665		787.79
15.7833		779.207
16.0031		770.683
16.226		762.221
16.4519		753.824
16.681		745.493
16.9133		737.231
17.1488		729.04
17.3876		720.921
17.6298		712.875
17.8753		704.903
18.1242		697.007
18.3766		689.187
18.6325		681.445
18.8919		673.782
19.155		666.196
19.4217		658.688
19.6922		651.256
19.9664		643.882
20.2445		636.549
20.5264		629.295
20.8122		622.12
21.102		615.028
21.3959		608.019
21.6938		601.097
21.9959		594.261
22.3022		587.514
22.6128		580.858
22.9277		574.292
23.247		567.817
23.5707		561.435
23.8989		555.143
24.2317		548.941
24.5692		542.831
24.9113		536.813
25.2582		530.885
25.6099		525.045
25.9666		519.292
26.3282		513.623
26.6948		508.036
27.0665		502.527
27.4434		497.091
27.8256		491.725
28.2131		486.423
28.606		481.179
29.0043		475.987
29.4082		470.839
29.8177		465.73
30.2329		460.728
30.654		455.754
31.0808		450.813
31.5136		445.904
31.9525		441.031
32.3974		436.193
32.8486		431.393
33.306		426.632
33.7698		421.912
34.2401		417.235
34.7169		412.6
35.2003		408.01
35.6905		403.466
36.1875		398.969
36.6914		394.519
37.2024		390.119
37.7204		385.769
38.2457		381.469
38.7783		377.221
39.3183		373.024
39.8658		368.877
40.421		364.772
40.9838		360.721
41.5546		356.722
42.1332		352.777
42.7199		348.885
43.3148		345.045
43.918		341.258
44.5296		337.523
45.1497		333.838
45.7784		330.202
46.4159		326.614
47.0622		323.072
47.7176		319.575
48.3821		316.118
49.0558		312.701
49.739		309.318
50.4316		305.968
51.1339		302.651
51.8459		299.367
52.5679		296.117
53.2999		292.901
54.0422		289.721
54.7947		286.575
55.5578		283.464
56.3314		280.388
57.1159		277.348
57.9112		274.341
58.7177		271.369
59.5353		268.431
60.3644		265.52
61.205		262.642
62.0573		259.798
62.9215		256.987
63.7977		254.212
64.6861		251.472
65.5869		248.767
66.5002		246.097
67.4262		243.463
68.3652		240.864
69.3172		238.301
70.2824		235.771
71.2612		233.276
72.2535		230.815
73.2597		228.386
74.2798		225.988
75.3142		223.621
76.363		221.282
77.4264		218.971
78.5046		216.684
79.5978		214.423
80.7062		212.201
81.8301		210
82.9696		207.821
84.125		205.665
85.2964		203.531
86.4842		201.419
87.6886		199.33
88.9097		197.264
90.1478		195.221
91.4031		193.201
92.6759		191.204
93.9665		189.229
95.275		187.276
96.6017		185.345
97.947		183.435
99.3109		181.546
100.694		179.666
102.096		177.805
103.518		175.965
104.959		174.147
106.421		172.35
107.903		170.575
109.405		168.823
110.929		167.095
112.474		165.389
114.04		163.708
115.628		162.05
117.238		160.417
118.871		158.808
120.526		157.223
122.204		155.663
123.906		154.127
125.632		152.615
127.381		151.126
129.155		149.661
130.954		148.218
132.777		146.798
134.626		145.399
136.501		144.02
138.402		142.661
140.329		141.319
142.283		139.994
144.264		138.685
146.273		137.388
148.31		136.102
150.376		134.844
152.47		133.604
154.593		132.372
156.746		131.151
158.928		129.939
161.141		128.737
163.385		127.546
165.661		126.366
167.967		125.197
170.307		124.04
172.678		122.893
175.083		121.759
177.521		120.637
179.993		119.527
182.499		118.43
185.041		117.345
187.617		116.273
190.23		115.213
192.879		114.166
195.565		113.132
198.288		112.11
201.05		111.093
203.849		110.088
206.688		109.096
209.566		108.116
212.485		107.15
215.443		106.198
218.444		105.26
221.486		104.335
224.57		103.425
227.697		102.529
230.868		101.647
234.083		100.78
237.342		99.9277
240.648		99.0898
243.999		98.2664
247.396		97.4573
250.842		96.6624
254.335		95.8815
257.876		95.1143
261.467		94.3604
265.108		93.6195
268.8		92.8909
272.543		92.1742
276.339		91.4686
280.187		90.7734
284.088		90.0878
288.044		89.4107
292.056		88.7411
296.123		88.0777
300.246		87.4256
304.427		86.7833
308.666		86.1459
312.965		85.5135
317.323		84.8864
321.742		84.2648
326.222		83.6489
330.765		83.0389
335.371		82.4352
340.041		81.8379
344.776		81.2471
349.578		80.6633
354.446		80.0864
359.381		79.5168
364.386		78.9545
369.46		78.3999
374.605		77.853
379.822		77.3139
385.111		76.7829
390.474		76.2601
395.911		75.7455
401.424		75.2381
407.014		74.7385
412.682		74.2474
418.429		73.7647
424.256		73.2904
430.164		72.8244
436.154		72.3666
442.227		71.917
448.386		71.4752
454.63		71.0413
460.96		70.6149
467.38		70.1958
473.888		69.7836
480.487		69.3779
487.178		68.9784
493.962		68.5846
500.841		68.1958
507.815		67.812
514.887		67.4332
522.057		67.0595
529.327		66.691
536.698		66.3278
544.171		65.9699
551.749		65.6173
559.433		65.2702
567.223		64.9284
575.122		64.592
583.131		64.261
591.251		63.9352
599.484		63.6143
607.832		63.2982
616.297		62.9874
624.879		62.6819
633.58		62.3817
642.403		62.0871
651.349		61.7979
660.419		61.5142
669.616		61.2359
678.941		60.9632
688.395		60.6959
697.981		60.4339
707.701		60.1773
717.556		59.9259
727.548		59.6797
737.68		59.4383
747.952		59.2018
758.368		58.9699
768.928		58.7423
779.636		58.5188
790.493		58.2992
801.501		58.0846
812.662		57.8746
823.979		57.6679
835.453		57.4647
847.087		57.265
858.883		57.0688
870.843		56.8761
882.97		56.6869
895.266		56.5012
907.733		56.3189
920.373		56.14
933.19		55.9644
946.185		55.7921
959.361		55.6229
972.72		55.4568
986.266		55.2937
1000		55.1326