SourceProgram=geant4_11_3_0
Target=WATER_LIQUID
IonizationPotential=78.0
Ion=C
AtomicNumber=6
MassNumber=12
E [MeV/u]	dEdx [MeV/cm]
0.1		6685.66
0.101393		6723.9
0.102804		6762.67
0.104236		6801.99
0.105688		6841.85
0.107159		6882.27
0.108652		6923.25
0.110165		6964.8
0.111699		7006.93
0.113254		7049.64
0.114831		7092.96
0.11643		7136.87
0.118052		7181.4
0.119696		7226.54
0.121362		7272.32
0.123052		7318.73
0.124766		7362.83
0.126503		7396.82
0.128265		7431.29
0.130051		7466.24
0.131862		7501.68
0.133698		7537.6
0.13556		7574.03
0.137448		7610.97
0.139362		7648.42
0.141303		7686.39
0.14327		7724.89
0.145265		7763.93
0.147288		7803.51
0.149339		7843.64
0.151419		7884.33
0.153528		7925.59
0.155665		7967.42
0.157833		8000.76
0.160031		8027.69
0.16226		8055
0.164519		8082.69
0.16681		8110.76
0.169133		8139.23
0.171488		8168.09
0.173876		8197.35
0.176298		8227.02
0.178753		8257.11
0.181242		8287.61
0.183766		8318.54
0.186325		8349.89
0.188919		8381.69
0.19155		8413.93
0.194217		8446.61
0.196922		8479.76
0.199664		8496.85
0.202445		8512.83
0.205264		8529.02
0.208122		8545.44
0.21102		8562.09
0.213959		8578.97
0.216938		8596.08
0.219959		8613.44
0.223022		8631.03
0.226128		8648.87
0.229277		8666.96
0.23247		8685.3
0.235707		8703.9
0.238989		8722.76
0.242317		8741.87
0.245692		8761.26
0.249113		8775.27
0.252582		8774.62
0.256099		8773.97
0.259666		8773.31
0.263282		8772.64
0.266948		8771.97
0.270665		8771.28
0.274434		8770.58
0.278256		8769.87
0.282131		8769.16
0.28606		8768.43
0.290043		8767.69
0.294082		8766.94
0.298177		8766.19
0.302329		8765.42
0.30654		8764.64
0.310808		8763.85
0.315136		8752.68
0.319525		8735.19
0.323974		8717.46
0.328486		8699.48
0.33306		8681.25
0.337698		8662.77
0.342401		8644.03
0.347169		8625.03
0.352003		8605.77
0.356905		8586.24
0.361875		8566.43
0.366914		8546.35
0.372024		8525.99
0.377204		8505.35
0.382457		8484.42
0.387783		8463.2
0.393183		8441.68
0.398658		8418.9
0.40421		8395.78
0.409838		8372.34
0.415546		8348.57
0.421332		8324.48
0.427199		8300.04
0.433148		8275.27
0.43918		8250.15
0.445296		8224.69
0.451497		8198.87
0.457784		8172.68
0.464159		8146.14
0.470622		8119.22
0.477176		8091.93
0.483821		8064.26
0.490558		8036.21
0.49739		8008.76
0.504316		7982.94
0.511339		7956.76
0.518459		7930.22
0.525679		7903.3
0.532999		7876.02
0.540422		7848.35
0.547947		7820.3
0.555578		7791.86
0.563314		7763.02
0.571159		7733.78
0.579112		7704.13
0.587177		7674.07
0.595353		7643.59
0.603644		7612.69
0.61205		7581.35
0.620573		7549.58
0.629215		7520.95
0.637977		7493.58
0.646861		7465.84
0.655869		7437.7
0.665002		7409.18
0.674262		7380.25
0.683652		7350.93
0.693172		7321.19
0.702824		7291.05
0.712612		7260.48
0.722535		7229.49
0.732597		7198.06
0.742798		7166.2
0.753142		7133.89
0.76363		7101.14
0.774264		7067.92
0.785046		7034.44
0.795978		7005.82
0.807062		6976.81
0.818301		6947.39
0.829696		6917.56
0.84125		6887.32
0.852964		6856.65
0.864842		6825.56
0.876886		6794.04
0.889097		6762.07
0.901478		6729.67
0.914031		6696.81
0.926759		6663.49
0.939665		6629.71
0.95275		6595.45
0.966017		6560.73
0.97947		6525.51
0.993109		6492.46
1.00694		6463.2
1.02096		6433.54
1.03518		6403.46
1.04959		6372.97
1.06421		6342.05
1.07903		6310.7
1.09405		6278.91
1.10929		6246.68
1.12474		6214
1.1404		6180.86
1.15628		6147.27
1.17238		6113.21
1.18871		6078.67
1.20526		6043.65
1.22204		6008.14
1.23906		5972.14
1.25632		5940.69
1.27381		5910.62
1.29155		5880.14
1.30954		5849.23
1.32777		5817.89
1.34626		5786.11
1.36501		5753.89
1.38402		5721.22
1.40329		5688.1
1.42283		5654.51
1.44264		5620.46
1.46273		5585.94
1.4831		5550.93
1.50376		5515.43
1.5247		5479.45
1.54593		5442.96
1.56746		5406.57
1.58928		5376.26
1.61141		5345.53
1.63385		5314.37
1.65661		5282.78
1.67967		5250.74
1.70307		5218.26
1.72678		5185.33
1.75083		5151.94
1.77521		5118.08
1.79993		5083.75
1.82499		5048.95
1.85041		5013.65
1.87617		4977.87
1.9023		4941.59
1.92879		4904.81
1.95565		4867.51
1.98288		4833.21
2.0105		4783.23
2.03849		4746.16
2.06688		4709.17
2.09566		4672.26
2.12485		4635.46
2.15443		4598.78
2.18444		4562.25
2.21486		4525.87
2.2457		4489.67
2.27697		4453.65
2.30868		4417.84
2.34083		4382.24
2.37342		4346.86
2.40648		4311.72
2.43999		4276.82
2.47396		4242.16
2.50842		4207.75
2.54335		4173.58
2.57876		4139.66
2.61467		4106.21
2.65108		4073
2.688		4039.98
2.72543		4007.16
2.76339		3974.5
2.80187		3942
2.84088		3909.62
2.88044		3877.32
2.92056		3845.09
2.96123		3812.86
3.00246		3780.93
3.04427		3749.16
3.08666		3717.38
3.12965		3685.59
3.17323		3653.81
3.21742		3622.06
3.26222		3590.35
3.30765		3558.7
3.35371		3527.12
3.40041		3495.62
3.44776		3464.22
3.49578		3432.93
3.54446		3401.76
3.59381		3370.73
3.64386		3339.85
3.6946		3309.13
3.74605		3278.58
3.79822		3248.2
3.85111		3218.01
3.90474		3188.02
3.95911		3158.22
4.01424		3128.56
4.07014		3099.05
4.12682		3069.72
4.18429		3040.63
4.24256		3011.76
4.30164		2983.14
4.36154		2954.75
4.42227		2926.61
4.48386		2898.7
4.5463		2871.03
4.6096		2843.6
4.6738		2816.38
4.73888		2789.39
4.80487		2762.6
4.87178		2736
4.93962		2709.58
5.00841		2683.31
5.07815		2657.19
5.14887		2631.23
5.22057		2605.44
5.29327		2579.82
5.36698		2554.37
5.44171		2529.11
5.51749		2504.03
5.59433		2479.13
5.67223		2454.42
5.75122		2429.9
5.83131		2405.55
5.91251		2381.39
5.99484		2357.38
6.07832		2333.51
6.16297		2309.82
6.24879		2286.32
6.3358		2263.02
6.42403		2239.91
6.51349		2217.01
6.60419		2194.32
6.69616		2171.83
6.78941		2149.56
6.88395		2127.5
6.97981		2105.65
7.07701		2084.02
7.17556		2062.59
7.27548		2041.39
7.3768		2020.41
7.47952		1999.61
7.58368		1979
7.68928		1958.56
7.79636		1938.28
7.90493		1918.15
8.01501		1898.27
8.12662		1878.57
8.23979		1859.02
8.35453		1839.61
8.47087		1820.34
8.58883		1801.22
8.70843		1782.26
8.8297		1763.44
8.95266		1744.79
9.07733		1726.29
9.20373		1707.95
9.3319		1689.77
9.46185		1671.75
9.59361		1653.88
9.7272		1636.17
9.86266		1618.6
10		1601.13
10.1393		1583.75
10.2804		1566.51
10.4236		1549.44
10.5688		1532.52
10.7159		1515.77
10.8652		1499.19
11.0165		1482.78
11.1699		1466.56
11.3254		1450.51
11.4831		1434.65
11.643		1418.98
11.8052		1403.51
11.9696		1388.22
12.1362		1373.13
12.3052		1358.22
12.4766		1343.51
12.6503		1329
12.8265		1314.66
13.0051		1300.52
13.1862		1286.55
13.3698		1272.76
13.556		1259.13
13.7448		1245.66
13.9362		1232.35
14.1303		1219.17
14.327		1206.12
14.5265		1193.17
14.7288		1180.33
14.9339		1167.61
15.1419		1155.16
15.3528		1142.78
15.5665		1130.47
15.7833		1118.24
16.0031		1106.09
16.226		1094.03
16.4519		1082.06
16.681		1070.18
16.9133		1058.39
17.1488		1046.7
17.3876		1035.11
17.6298		1023.63
17.8753		1012.24
18.1242		1000.97
18.3766		989.797
18.6325		978.735
18.8919		967.783
19.155		956.941
19.4217		946.206
19.6922		935.58
19.9664		925.028
20.2445		914.539
20.5264		904.16
20.8122		893.893
21.102		883.743
21.3959		873.711
21.6938		863.801
21.9959		854.015
22.3022		844.355
22.6128		834.822
22.9277		825.418
23.247		816.145
23.5707		807.002
23.8989		797.988
24.2317		789.102
24.5692		780.347
24.9113		771.723
25.2582		763.227
25.6099		754.856
25.9666		746.61
26.3282		738.483
26.6948		730.472
27.0665		722.572
27.4434		714.777
27.8256		707.08
28.2131		699.475
28.606		691.951
29.0043		684.501
29.4082		677.113
29.8177		669.786
30.2329		662.605
30.654		655.465
31.0808		648.37
31.5136		641.323
31.9525		634.325
32.3974		627.379
32.8486		620.486
33.306		613.649
33.7698		606.871
34.2401		600.152
34.7169		593.496
35.2003		586.903
35.6905		580.376
36.1875		573.916
36.6914		567.525
37.2024		561.203
37.7204		554.953
38.2457		548.775
38.7783		542.671
39.3183		536.641
39.8658		530.68
40.421		524.782
40.9838		518.959
41.5546		513.213
42.1332		507.543
42.7199		501.949
43.3148		496.43
43.918		490.987
44.5296		485.617
45.1497		480.32
45.7784		475.094
46.4159		469.936
47.0622		464.845
47.7176		459.816
48.3821		454.847
49.0558		449.933
49.739		445.069
50.4316		440.252
51.1339		435.482
51.8459		430.76
52.5679		426.087
53.2999		421.464
54.0422		416.89
54.7947		412.367
55.5578		407.894
56.3314		403.471
57.1159		399.099
57.9112		394.776
58.7177		390.502
59.5353		386.277
60.3644		382.09
61.205		377.95
62.0573		373.86
62.9215		369.818
63.7977		365.827
64.6861		361.886
65.5869		357.995
66.5002		354.155
67.4262		350.367
68.3652		346.629
69.3172		342.941
70.2824		339.303
71.2612		335.714
72.2535		332.173
73.2597		328.679
74.2798		325.231
75.3142		321.825
76.363		318.461
77.4264		315.135
78.5046		311.845
79.5978		308.593
80.7062		305.397
81.8301		302.231
82.9696		299.096
84.125		295.994
85.2964		292.923
86.4842		289.885
87.6886		286.88
88.9097		283.908
90.1478		280.969
91.4031		278.063
92.6759		275.19
93.9665		272.348
95.275		269.539
96.6017		266.761
97.947		264.014
99.3109		261.295
100.694		258.589
102.096		255.912
103.518		253.265
104.959		250.648
106.421		248.063
107.903		245.51
109.405		242.99
110.929		240.503
112.474		238.049
114.04		235.63
115.628		233.246
117.238		230.896
118.871		228.581
120.526		226.302
122.204		224.057
123.906		221.847
125.632		219.672
127.381		217.531
129.155		215.424
130.954		213.349
132.777		211.306
134.626		209.293
136.501		207.31
138.402		205.354
140.329		203.424
142.283		201.518
144.264		199.633
146.273		197.767
148.31		195.917
150.376		194.109
152.47		192.324
154.593		190.552
156.746		188.794
158.928		187.05
161.141		185.321
163.385		183.607
165.661		181.909
167.967		180.226
170.307		178.56
172.678		176.911
175.083		175.279
177.521		173.665
179.993		172.068
182.499		170.489
185.041		168.928
187.617		167.385
190.23		165.86
192.879		164.354
195.565		162.866
198.288		161.395
201.05		159.932
203.849		158.486
206.688		157.058
209.566		155.649
212.485		154.26
215.443		152.89
218.444		151.54
221.486		150.21
224.57		148.901
227.697		147.612
230.868		146.344
234.083		145.098
237.342		143.872
240.648		142.667
243.999		141.482
247.396		140.319
250.842		139.175
254.335		138.052
257.876		136.949
261.467		135.865
265.108		134.799
268.8		133.751
272.543		132.72
276.339		131.705
280.187		130.704
284.088		129.718
288.044		128.743
292.056		127.779
296.123		126.824
300.246		125.887
304.427		124.962
308.666		124.044
312.965		123.134
317.323		122.231
321.742		121.336
326.222		120.45
330.765		119.572
335.371		118.703
340.041		117.843
344.776		116.993
349.578		116.152
354.446		115.322
359.381		114.502
364.386		113.693
369.46		112.895
374.605		112.108
379.822		111.333
385.111		110.569
390.474		109.816
395.911		109.076
401.424		108.346
407.014		107.627
412.682		106.92
418.429		106.226
424.256		105.544
430.164		104.873
436.154		104.214
442.227		103.567
448.386		102.932
454.63		102.308
460.96		101.694
467.38		101.091
473.888		100.498
480.487		99.9139
487.178		99.339
493.962		98.7721
500.841		98.2126
507.815		97.6601
514.887		97.1149
522.057		96.577
529.327		96.0467
536.698		95.524
544.171		95.009
551.749		94.5017
559.433		94.0021
567.223		93.5103
575.122		93.0263
583.131		92.55
591.251		92.0813
599.484		91.6195
607.832		91.1647
616.297		90.7175
624.879		90.2779
633.58		89.8462
642.403		89.4223
651.349		89.0063
660.419		88.5981
669.616		88.1979
678.941		87.8056
688.395		87.421
697.981		87.0443
707.701		86.6751
717.556		86.3135
727.548		85.9592
737.68		85.612
747.952		85.2717
758.368		84.938
768.928		84.6105
779.636		84.289
790.493		83.9728
801.501		83.6644
812.662		83.362
823.979		83.0646
835.453		82.7722
847.087		82.4849
858.883		82.2025
870.843		81.9252
882.97		81.653
895.266		81.3857
907.733		81.1234
920.373		80.866
933.19		80.6133
946.185		80.3654
959.361		80.122
972.72		79.883
986.266		79.6482
1000		79.4164