SourceProgram=geant4_11_3_0
Target=WATER_LIQUID
IonizationPotential=78.0
Ion=O
AtomicNumber=8
MassNumber=16
E [MeV/u]	dEdx [MeV/cm]
0.1		8668.61
0.101393		8727.05
0.102804		8786.3
0.104236		8846.38
0.105688		8907.3
0.107159		8969.07
0.108652		9031.69
0.110165		9095.19
0.111699		9159.58
0.113254		9224.86
0.114831		9291.05
0.11643		9358.16
0.118052		9426.2
0.119696		9495.2
0.121362		9565.15
0.123052		9636.08
0.124766		9703.66
0.126503		9758.34
0.128265		9813.77
0.130051		9869.98
0.131862		9926.97
0.133698		9984.75
0.13556		10043.3
0.137448		10102.7
0.139362		10163
0.141303		10224.1
0.14327		10286
0.145265		10348.8
0.147288		10412.4
0.149339		10477
0.151419		10542.4
0.153528		10608.8
0.155665		10676
0.157833		10731.1
0.160031		10777.8
0.16226		10825.2
0.164519		10873.3
0.16681		10922
0.169133		10971.4
0.171488		11021.5
0.173876		11072.3
0.176298		11123.8
0.178753		11176
0.181242		11228.9
0.183766		11282.6
0.186325		11337
0.188919		11392.2
0.19155		11448.1
0.194217		11504.9
0.196922		11562.4
0.199664		11596
0.202445		11628.6
0.205264		11661.8
0.208122		11695.3
0.21102		11729.4
0.213959		11763.9
0.216938		11798.9
0.219959		11834.3
0.223022		11870.3
0.226128		11906.8
0.229277		11943.8
0.23247		11981.3
0.235707		12019.3
0.238989		12057.8
0.242317		12096.9
0.245692		12136.6
0.249113		12167.5
0.252582		12176.9
0.256099		12186.5
0.259666		12196.2
0.263282		12206
0.266948		12216
0.270665		12226.1
0.274434		12236.3
0.278256		12246.7
0.282131		12257.3
0.28606		12267.9
0.290043		12278.8
0.294082		12289.8
0.298177		12300.9
0.302329		12312.2
0.30654		12323.6
0.310808		12335.2
0.315136		12329.5
0.319525		12314.3
0.323974		12298.8
0.328486		12283.2
0.33306		12267.3
0.337698		12251.2
0.342401		12234.9
0.347169		12218.3
0.352003		12201.5
0.356905		12184.5
0.361875		12167.3
0.366914		12149.8
0.372024		12132
0.377204		12114.1
0.382457		12095.8
0.387783		12077.3
0.393183		12058.6
0.398658		12034.7
0.40421		12010.4
0.409838		11985.8
0.415546		11960.9
0.421332		11935.6
0.427199		11910
0.433148		11884
0.43918		11857.7
0.445296		11831
0.451497		11803.9
0.457784		11776.4
0.464159		11748.6
0.470622		11720.3
0.477176		11691.7
0.483821		11662.7
0.490558		11633.3
0.49739		11603.6
0.504316		11573.9
0.511339		11543.8
0.518459		11513.2
0.525679		11482.2
0.532999		11450.8
0.540422		11419
0.547947		11386.7
0.555578		11354
0.563314		11320.8
0.571159		11287.1
0.579112		11253
0.587177		11218.4
0.595353		11183.4
0.603644		11147.8
0.61205		11111.7
0.620573		11075.2
0.629215		11041.2
0.637977		11008
0.646861		10974.3
0.655869		10940.2
0.665002		10905.6
0.674262		10870.5
0.683652		10835
0.693172		10798.9
0.702824		10762.4
0.712612		10725.3
0.722535		10687.7
0.732597		10649.6
0.742798		10611
0.753142		10571.8
0.76363		10532.1
0.774264		10491.8
0.785046		10451.3
0.795978		10415.5
0.807062		10379.2
0.818301		10342.4
0.829696		10305.1
0.84125		10267.3
0.852964		10228.9
0.864842		10190
0.876886		10150.6
0.889097		10110.6
0.901478		10070.1
0.914031		10029
0.926759		9987.34
0.939665		9945.1
0.95275		9902.26
0.966017		9858.83
0.97947		9814.79
0.993109		9773.26
1.00694		9735.72
1.02096		9697.65
1.03518		9659.06
1.04959		9619.93
1.06421		9580.25
1.07903		9540.02
1.09405		9499.23
1.10929		9457.87
1.12474		9415.94
1.1404		9373.42
1.15628		9330.31
1.17238		9286.6
1.18871		9242.28
1.20526		9197.34
1.22204		9151.78
1.23906		9105.58
1.25632		9064.79
1.27381		9025.37
1.29155		8985.4
1.30954		8944.87
1.32777		8903.78
1.34626		8862.12
1.36501		8819.88
1.38402		8777.05
1.40329		8733.62
1.42283		8689.59
1.44264		8644.94
1.46273		8599.67
1.4831		8553.78
1.50376		8507.24
1.5247		8460.05
1.54593		8412.21
1.56746		8364.64
1.58928		8324.14
1.61141		8283.06
1.63385		8241.42
1.65661		8199.2
1.67967		8156.39
1.70307		8112.98
1.72678		8068.97
1.75083		8024.35
1.77521		7979.1
1.79993		7933.23
1.82499		7886.71
1.85041		7839.55
1.87617		7791.73
1.9023		7743.25
1.92879		7694.09
1.95565		7644.25
1.98288		7598.28
2.0105		7682.06
2.03849		7629.07
2.06688		7576.1
2.09566		7523.19
2.12485		7470.34
2.15443		7417.6
2.18444		7365
2.21486		7312.55
2.2457		7260.29
2.27697		7208.24
2.30868		7156.42
2.34083		7104.86
2.37342		7053.56
2.40648		7002.54
2.43999		6951.82
2.47396		6901.4
2.50842		6851.29
2.54335		6801.49
2.57876		6752
2.61467		6703.31
2.65108		6654.91
2.688		6606.74
2.72543		6558.77
2.76339		6510.98
2.80187		6463.34
2.84088		6415.79
2.88044		6368.3
2.92056		6320.79
2.96123		6273.19
3.00246		6225.99
3.04427		6178.96
3.08666		6131.8
3.12965		6084.52
3.17323		6037.17
3.21742		5989.76
3.26222		5942.31
3.30765		5894.86
3.35371		5847.42
3.40041		5800.02
3.44776		5752.69
3.49578		5705.44
3.54446		5658.3
3.59381		5611.28
3.64386		5564.41
3.6946		5517.71
3.74605		5471.18
3.79822		5424.86
3.85111		5378.75
3.90474		5332.87
3.95911		5287.23
4.01424		5241.7
4.07014		5196.31
4.12682		5151.12
4.18429		5106.23
4.24256		5061.63
4.30164		5017.34
4.36154		4973.37
4.42227		4929.71
4.48386		4886.36
4.5463		4843.33
4.6096		4800.59
4.6738		4758.15
4.73888		4715.99
4.80487		4674.09
4.87178		4632.43
4.93962		4590.97
5.00841		4549.69
5.07815		4508.59
5.14887		4467.67
5.22057		4426.95
5.29327		4386.45
5.36698		4346.16
5.44171		4306.1
5.51749		4266.27
5.59433		4226.67
5.67223		4187.32
5.75122		4148.2
5.83131		4109.31
5.91251		4070.66
5.99484		4032.18
6.07832		3993.89
6.16297		3955.83
6.24879		3918.02
6.3358		3880.47
6.42403		3843.19
6.51349		3806.19
6.60419		3769.48
6.69616		3733.06
6.78941		3696.94
6.88395		3661.12
6.97981		3625.6
7.07701		3590.38
7.17556		3555.47
7.27548		3520.88
7.3768		3486.62
7.47952		3452.62
7.58368		3418.88
7.68928		3385.37
7.79636		3352.09
7.90493		3318.99
8.01501		3286.28
8.12662		3253.84
8.23979		3221.59
8.35453		3189.53
8.47087		3157.67
8.58883		3126.01
8.70843		3094.56
8.8297		3063.34
8.95266		3032.33
9.07733		3001.55
9.20373		2971
9.3319		2940.68
9.46185		2910.58
9.59361		2880.71
9.7272		2851.07
9.86266		2821.63
10		2792.31
10.1393		2763.11
10.2804		2734.13
10.4236		2705.39
10.5688		2676.88
10.7159		2648.62
10.8652		2620.62
11.0165		2592.9
11.1699		2565.45
11.3254		2538.29
11.4831		2511.41
11.643		2484.84
11.8052		2458.56
11.9696		2432.59
12.1362		2406.93
12.3052		2381.57
12.4766		2356.53
12.6503		2331.78
12.8265		2307.34
13.0051		2283.2
13.1862		2259.34
13.3698		2235.76
13.556		2212.45
13.7448		2189.4
13.9362		2166.58
14.1303		2143.98
14.327		2121.58
14.5265		2099.36
14.7288		2077.27
14.9339		2055.42
15.1419		2033.98
15.3528		2012.66
15.5665		1991.44
15.7833		1970.34
16.0031		1949.37
16.226		1928.53
16.4519		1907.83
16.681		1887.28
16.9133		1866.88
17.1488		1846.63
17.3876		1826.54
17.6298		1806.62
17.8753		1786.87
18.1242		1767.28
18.3766		1747.88
18.6325		1728.65
18.8919		1709.6
19.155		1690.73
19.4217		1672.04
19.6922		1653.53
19.9664		1635.13
20.2445		1616.84
20.5264		1598.73
20.8122		1580.81
21.102		1563.08
21.3959		1545.55
21.6938		1528.23
21.9959		1511.12
22.3022		1494.22
22.6128		1477.54
22.9277		1461.07
23.247		1444.83
23.5707		1428.82
23.8989		1413.02
24.2317		1397.45
24.5692		1382.1
24.9113		1366.97
25.2582		1352.06
25.6099		1337.37
25.9666		1322.9
26.3282		1308.63
26.6948		1294.56
27.0665		1280.68
27.4434		1266.98
27.8256		1253.45
28.2131		1240.07
28.606		1226.84
29.0043		1213.73
29.4082		1200.73
29.8177		1187.83
30.2329		1175.19
30.654		1162.61
31.0808		1150.11
31.5136		1137.69
31.9525		1125.36
32.3974		1113.11
32.8486		1100.96
33.306		1088.9
33.7698		1076.94
34.2401		1065.08
34.7169		1053.33
35.2003		1041.69
35.6905		1030.16
36.1875		1018.75
36.6914		1007.46
37.2024		996.289
37.7204		985.242
38.2457		974.32
38.7783		963.525
39.3183		952.859
39.8658		942.313
40.421		931.876
40.9838		921.572
41.5546		911.401
42.1332		901.363
42.7199		891.458
43.3148		881.686
43.918		872.046
44.5296		862.536
45.1497		853.153
45.7784		843.895
46.4159		834.757
47.0622		825.736
47.7176		816.825
48.3821		808.019
49.0558		799.311
49.739		790.691
50.4316		782.153
51.1339		773.698
51.8459		765.329
52.5679		757.046
53.2999		748.849
54.0422		740.741
54.7947		732.722
55.5578		724.79
56.3314		716.948
57.1159		709.194
57.9112		701.527
58.7177		693.947
59.5353		686.451
60.3644		679.023
61.205		671.678
62.0573		664.419
62.9215		657.247
63.7977		650.163
64.6861		643.168
65.5869		636.261
66.5002		629.445
67.4262		622.718
68.3652		616.081
69.3172		609.533
70.2824		603.073
71.2612		596.7
72.2535		590.412
73.2597		584.207
74.2798		578.082
75.3142		572.034
76.363		566.058
77.4264		560.152
78.5046		554.309
79.5978		548.534
80.7062		542.856
81.8301		537.233
82.9696		531.666
84.125		526.156
85.2964		520.702
86.4842		515.307
87.6886		509.97
88.9097		504.691
90.1478		499.471
91.4031		494.31
92.6759		489.206
93.9665		484.16
95.275		479.17
96.6017		474.235
97.947		469.354
99.3109		464.524
100.694		459.717
102.096		454.962
103.518		450.259
104.959		445.611
106.421		441.018
107.903		436.482
109.405		432.004
110.929		427.585
112.474		423.226
114.04		418.928
115.628		414.691
117.238		410.516
118.871		406.404
120.526		402.354
122.204		398.366
123.906		394.44
125.632		390.575
127.381		386.772
129.155		383.027
130.954		379.341
132.777		375.711
134.626		372.136
136.501		368.613
138.402		365.138
140.329		361.71
142.283		358.323
144.264		354.975
146.273		351.659
148.31		348.373
150.376		345.161
152.47		341.989
154.593		338.841
156.746		335.717
158.928		332.619
161.141		329.546
163.385		326.501
165.661		323.484
167.967		320.495
170.307		317.535
172.678		314.604
175.083		311.705
177.521		308.836
179.993		305.999
182.499		303.193
185.041		300.42
187.617		297.679
190.23		294.97
192.879		292.294
195.565		289.65
198.288		287.038
201.05		284.438
203.849		281.869
206.688		279.333
209.566		276.831
212.485		274.363
215.443		271.93
218.444		269.533
221.486		267.171
224.57		264.846
227.697		262.558
230.868		260.306
234.083		258.092
237.342		255.915
240.648		253.775
243.999		251.672
247.396		249.605
250.842		247.575
254.335		245.58
257.876		243.62
261.467		241.693
265.108		239.8
268.8		237.938
272.543		236.105
276.339		234.301
280.187		232.523
284.088		230.77
288.044		229.037
292.056		227.324
296.123		225.626
300.246		223.959
304.427		222.315
308.666		220.683
312.965		219.064
317.323		217.458
321.742		215.867
326.222		214.29
330.765		212.729
335.371		211.184
340.041		209.655
344.776		208.143
349.578		206.649
354.446		205.173
359.381		203.716
364.386		202.277
369.46		200.858
374.605		199.459
379.822		198.08
385.111		196.722
390.474		195.384
395.911		194.068
401.424		192.77
407.014		191.492
412.682		190.236
418.429		189.001
424.256		187.788
430.164		186.596
436.154		185.424
442.227		184.274
448.386		183.144
454.63		182.033
460.96		180.942
467.38		179.87
473.888		178.815
480.487		177.777
487.178		176.754
493.962		175.746
500.841		174.75
507.815		173.768
514.887		172.798
522.057		171.842
529.327		170.898
536.698		169.969
544.171		169.053
551.749		168.151
559.433		167.263
567.223		166.388
575.122		165.528
583.131		164.681
591.251		163.847
599.484		163.027
607.832		162.218
616.297		161.423
624.879		160.642
633.58		159.874
642.403		159.121
651.349		158.381
660.419		157.655
669.616		156.944
678.941		156.247
688.395		155.563
697.981		154.893
707.701		154.237
717.556		153.594
727.548		152.964
737.68		152.346
747.952		151.741
758.368		151.148
768.928		150.565
779.636		149.993
790.493		149.431
801.501		148.883
812.662		148.345
823.979		147.816
835.453		147.296
847.087		146.784
858.883		146.282
870.843		145.789
882.97		145.305
895.266		144.829
907.733		144.363
920.373		143.905
933.19		143.456
946.185		143.015
959.361		142.582
972.72		142.157
986.266		141.739
1000		141.327