Reference: Inaniwa et al. (2018)
DOI: 10.1088/1361-6560/aabede
Model_Name: Kiefer-Chatterjee
Core_Radius_Type: energy-dependent
Cell_Type: HSG
Atomic_Number: 2
Domain_Radius_um: 0.29
Nucleus_Radius_um: 3.9
Alpha0_Gy-1: 0.150
Beta0_Gy-2: 0.0593
LET_MeV_cm: 186
z0_Gy: 55.0
Data_Units: Dose [Gy], Survival fraction
Data:
2.0890E-01  8.6991E-01
5.7447E-01  6.5002E-01
1.0271E+00  4.7356E-01
1.3926E+00  3.4940E-01
1.9149E+00  2.2712E-01
2.3501E+00  1.5335E-01
2.8027E+00  9.9683E-02
3.3598E+00  5.7086E-02
3.7079E+00  3.8060E-02
4.3520E+00  1.8961E-02
4.9439E+00  9.3269E-03
5.3965E+00  5.3413E-03
5.8665E+00  2.9448E-03
6.3714E+00  1.5047E-03
6.7718E+00  8.7267E-04
7.2070E+00  4.6318E-04
7.5551E+00  2.8260E-04
7.8685E+00  1.7910E-04
8.1818E+00  1.0927E-04
