Reference: Inaniwa et al. (2018)
DOI: 10.1088/1361-6560/aabede
Model_Name: Kiefer-Chatterjee
Core_Radius_Type: energy-dependent
Cell_Type: HSG
Atomic_Number: 2
Domain_Radius_um: 0.29
Nucleus_Radius_um: 3.9
Alpha0_Gy-1: 0.150
Beta0_Gy-2: 0.0593
LET_MeV_cm: 330
z0_Gy: 55.0
Data_Units: Dose [Gy], Survival fraction
Data:
1.3981E-01  8.4815E-01
4.3689E-01  5.9486E-01
8.2136E-01  3.8667E-01
1.2233E+00  2.3002E-01
1.5903E+00  1.4952E-01
1.9398E+00  9.4758E-02
2.3243E+00  5.6368E-02
2.7087E+00  3.3959E-02
2.9534E+00  2.3517E-02
3.3553E+00  1.3298E-02
3.6350E+00  8.7544E-03
3.9495E+00  5.4784E-03
4.2990E+00  3.2178E-03
4.6485E+00  1.8663E-03
4.9981E+00  1.0824E-03
5.3650E+00  5.8924E-04
5.7146E+00  3.3319E-04
6.0641E+00  1.8604E-04
6.3087E+00  1.1495E-04
