Reference: Inaniwa et al. (2018)
DOI: 10.1088/1361-6560/aabede
Model_Name: Kiefer-Chatterjee
Core_Radius_Type: energy-dependent
Cell_Type: HSG
Atomic_Number: 2
Domain_Radius_um: 0.29
Nucleus_Radius_um: 3.9
Alpha0_Gy-1: 0.150
Beta0_Gy-2: 0.0593
LET_MeV_cm: 703
z0_Gy: 55.0
Data_Units: Dose [Gy], Survival fraction
Data:
1.0465E-01  8.2671E-01
2.7907E-01  5.6502E-01
5.2326E-01  3.4016E-01
7.8488E-01  2.0220E-01
1.0291E+00  1.2020E-01
1.3430E+00  5.9822E-02
1.6395E+00  3.1723E-02
1.9186E+00  1.7698E-02
2.2674E+00  8.0600E-03
2.6163E+00  3.5786E-03
3.0000E+00  1.4539E-03
3.3837E+00  6.0586E-04
3.6802E+00  3.1323E-04
3.9942E+00  1.5590E-04
