Reference: Inaniwa et al. (2018)
DOI: 10.1088/1361-6560/aabede
Model_Name: Kiefer-Chatterjee
Core_Radius_Type: energy-dependent
Cell_Type: HSG
Atomic_Number: 6
Domain_Radius_um: 0.29
Nucleus_Radius_um: 3.9
Alpha0_Gy-1: 0.150
Beta0_Gy-2: 0.0593
LET_MeV_cm: 225
z0_Gy: 55.0
Data_Units: Dose [Gy], Survival fraction
Data:
2.7876E-01  8.5296E-01
5.9735E-01  6.7679E-01
9.5575E-01  5.3701E-01
1.2345E+00  4.2610E-01
1.5531E+00  3.3810E-01
1.9115E+00  2.4598E-01
2.3097E+00  1.7639E-01
2.7677E+00  1.1766E-01
3.3252E+00  6.8914E-02
3.6637E+00  4.9417E-02
4.1217E+00  3.0666E-02
4.5000E+00  1.9588E-02
4.9381E+00  1.2155E-02
5.3164E+00  7.7644E-03
5.7146E+00  4.8182E-03
6.1527E+00  2.8220E-03
6.5111E+00  1.7512E-03
6.8496E+00  1.1025E-03
7.1482E+00  7.1450E-04
7.4668E+00  4.5639E-04
7.7257E+00  3.2258E-04
7.9845E+00  2.1832E-04
8.3628E+00  1.2244E-04
