Reference: Inaniwa et al. (2018)
DOI: 10.1088/1361-6560/aabede
Model_Name: Kiefer-Chatterjee
Core_Radius_Type: energy-dependent
Cell_Type: V79
Atomic_Number: 10
Domain_Radius_um: 0.23
Nucleus_Radius_um: 8.1
Alpha0_Gy-1: 0.103
Beta0_Gy-2: 0.0210
LET_MeV_cm: 622
z0_Gy: 122.0
Data_Units: Dose [Gy], Survival fraction
Data:
2.7155E-01  8.3223E-01
6.5948E-01  6.3633E-01
1.2608E+00  3.8811E-01
1.9591E+00  2.1748E-01
2.6767E+00  1.2360E-01
3.1422E+00  8.3223E-02
3.6853E+00  5.3711E-02
4.2866E+00  3.1400E-02
4.8491E+00  1.9152E-02
5.5474E+00  1.0142E-02
6.1681E+00  5.6833E-03
6.7888E+00  3.2300E-03
7.3125E+00  1.8618E-03
7.9720E+00  1.0000E-03
8.5151E+00  5.6036E-04
9.0194E+00  3.3226E-04