Reference: Inaniwa et al. (2018)
DOI: 10.1088/1361-6560/aabede
Model_Name: Kiefer-Chatterjee
Core_Radius_Type: energy-dependent
Cell_Type: V79
Atomic_Number: 2
Domain_Radius_um: 0.23
Nucleus_Radius_um: 8.1
Alpha0_Gy-1: 0.103
Beta0_Gy-2: 0.0210
LET_MeV_cm: 381
z0_Gy: 122.0
Data_Units: Dose [Gy], Survival fraction
Data:
1.7134E-01  8.5644E-01
4.9276E-01  6.7885E-01
9.2133E-01  4.9798E-01
1.2429E+00  3.7969E-01
1.8143E+00  2.5120E-01
2.2251E+00  1.8189E-01
2.6359E+00  1.2835E-01
3.1002E+00  9.1751E-02
3.4754E+00  6.5581E-02
3.8505E+00  4.7486E-02
4.3150E+00  3.1411E-02
4.7795E+00  2.1048E-02
5.2440E+00  1.3923E-02
5.7978E+00  8.5229E-03
6.2802E+00  5.4232E-03
6.7627E+00  3.3628E-03
7.2452E+00  2.0851E-03
7.8170E+00  1.1965E-03
8.3710E+00  6.8657E-04
8.7999E+00  4.4253E-04
9.1752E+00  3.0036E-04