Reference: Inaniwa et al. (2018)
DOI: 10.1088/1361-6560/aabede
Model_Name: Kiefer-Chatterjee
Core_Radius_Type: energy-dependent
Cell_Type: V79
Atomic_Number: 2
Domain_Radius_um: 0.23
Nucleus_Radius_um: 8.1
Alpha0_Gy-1: 0.103
Beta0_Gy-2: 0.0210
LET_MeV_cm: 186
z0_Gy: 122.0
Data_Units: Dose [Gy], Survival fraction
Data:
2.2092E-01  9.1304E-01
5.4143E-01  8.2277E-01
1.0221E+00  6.7701E-01
1.5205E+00  5.4988E-01
2.1257E+00  4.1855E-01
2.5885E+00  3.3559E-01
3.1403E+00  2.5879E-01
3.6563E+00  1.9447E-01
4.1725E+00  1.5193E-01
4.6529E+00  1.1566E-01
5.1690E+00  8.6918E-02
5.6316E+00  6.6172E-02
6.2009E+00  4.6004E-02
6.7347E+00  3.3252E-02
7.2328E+00  2.4036E-02
7.8020E+00  1.5866E-02
8.3712E+00  1.0748E-02
8.9404E+00  7.1876E-03
9.3672E+00  5.1291E-03