Reference: Inaniwa et al. (2018)
DOI: 10.1088/1361-6560/aabede
Model_Name: Kiefer-Chatterjee
Core_Radius_Type: energy-dependent
Cell_Type: V79
Atomic_Number: 6
Domain_Radius_um: 0.23
Nucleus_Radius_um: 8.1
Alpha0_Gy-1: 0.103
Beta0_Gy-2: 0.0210
LET_MeV_cm: 310
z0_Gy: 122.0
Data_Units: Dose [Gy], Survival fraction
Data:
3.0155E-01  8.7353E-01
7.4227E-01  7.1319E-01
1.2294E+00  5.5349E-01
1.7397E+00  4.2956E-01
2.2268E+00  3.3905E-01
2.8763E+00  2.3378E-01
3.4098E+00  1.7246E-01
3.9433E+00  1.2723E-01
4.4536E+00  9.3858E-02
5.0335E+00  6.2564E-02
5.6830E+00  4.1005E-02
6.2397E+00  2.7799E-02
6.8660E+00  1.7614E-02
7.3763E+00  1.2145E-02
7.9330E+00  8.0957E-03
8.4201E+00  5.4884E-03
8.9536E+00  3.4193E-03