SourceProgram=fluka_2020_0
Target=WATER_LIQUID
IonizationPotential=77.0
Ion=H
AtomicNumber=1
MassNumber=1
E [MeV/u]	dEdx [MeV/cm]
1.00000e-01	8.12117e+02
1.04737e-01	8.06791e+02
1.09699e-01	8.00457e+02
1.14895e-01	7.92941e+02
1.20338e-01	7.84627e+02
1.26038e-01	7.75119e+02
1.32009e-01	7.64837e+02
1.38262e-01	7.53734e+02
1.44812e-01	7.41821e+02
1.51672e-01	7.29248e+02
1.58857e-01	7.16201e+02
1.66382e-01	7.02433e+02
1.74263e-01	6.90866e+02
1.82518e-01	6.79984e+02
1.91164e-01	6.68728e+02
2.00220e-01	6.56936e+02
2.09705e-01	6.45030e+02
2.19639e-01	6.32800e+02
2.30043e-01	6.20333e+02
2.40940e-01	6.07703e+02
2.52354e-01	5.94971e+02
2.64308e-01	5.82144e+02
2.76829e-01	5.69205e+02
2.89942e-01	5.56365e+02
3.03677e-01	5.43378e+02
3.18063e-01	5.30530e+02
3.33129e-01	5.17723e+02
3.48910e-01	5.05024e+02
3.65438e-01	4.92368e+02
3.82749e-01	4.79809e+02
4.00881e-01	4.67349e+02
4.19871e-01	4.55092e+02
4.39760e-01	4.43045e+02
4.60592e-01	4.31052e+02
4.82411e-01	4.19117e+02
5.05263e-01	4.07238e+02
5.29198e-01	3.95526e+02
5.54266e-01	3.84098e+02
5.80523e-01	3.72794e+02
6.08022e-01	3.61807e+02
6.36825e-01	3.51097e+02
6.66992e-01	3.40561e+02
6.98588e-01	3.30219e+02
7.31681e-01	3.20165e+02
7.66341e-01	3.10301e+02
8.02643e-01	3.00644e+02
8.40665e-01	2.91280e+02
8.80488e-01	2.82118e+02
9.22198e-01	2.73231e+02
9.65883e-01	2.64508e+02
1.01164e+00	2.56011e+02
1.05956e+00	2.47858e+02
1.10975e+00	2.39875e+02
1.16232e+00	2.32244e+02
1.21738e+00	2.24709e+02
1.27505e+00	2.17363e+02
1.33545e+00	2.10210e+02
1.39871e+00	2.03334e+02
1.46497e+00	1.96642e+02
1.53437e+00	1.90163e+02
1.60705e+00	1.83828e+02
1.68318e+00	1.77659e+02
1.76291e+00	1.71717e+02
1.84642e+00	1.65928e+02
1.93389e+00	1.60399e+02
2.02550e+00	1.54899e+02
2.12145e+00	1.49665e+02
2.22195e+00	1.44600e+02
2.32720e+00	1.39729e+02
2.43744e+00	1.34974e+02
2.55291e+00	1.30346e+02
2.67384e+00	1.25935e+02
2.80050e+00	1.21631e+02
2.93317e+00	1.17425e+02
3.07211e+00	1.13421e+02
3.21764e+00	1.09505e+02
3.37006e+00	1.05701e+02
3.52971e+00	1.01993e+02
3.69691e+00	9.84849e+01
3.87204e+00	9.50459e+01
4.05546e+00	9.17177e+01
4.24757e+00	8.84966e+01
4.44878e+00	8.53950e+01
4.65953e+00	8.23768e+01
4.88025e+00	7.94692e+01
5.11143e+00	7.66521e+01
5.35357e+00	7.39254e+01
5.60717e+00	7.12995e+01
5.87279e+00	6.87626e+01
6.15099e+00	6.62936e+01
6.44236e+00	6.39212e+01
6.74754e+00	6.16287e+01
7.06718e+00	5.94172e+01
7.40196e+00	5.72744e+01
7.75260e+00	5.52026e+01
8.11984e+00	5.32091e+01
8.50449e+00	5.12789e+01
8.90735e+00	4.94206e+01
9.32930e+00	4.76287e+01
9.77124e+00	4.58971e+01
1.02341e+01	4.42211e+01
1.07189e+01	4.26116e+01
1.12267e+01	4.10513e+01
1.17585e+01	3.95587e+01
1.23155e+01	3.81017e+01
1.28989e+01	3.67070e+01
1.35099e+01	3.53676e+01
1.41499e+01	3.40587e+01
1.48202e+01	3.28156e+01
1.55223e+01	3.16094e+01
1.62576e+01	3.04428e+01
1.70277e+01	2.93236e+01
1.78343e+01	2.82461e+01
1.86791e+01	2.71984e+01
1.95640e+01	2.61995e+01
2.04907e+01	2.52289e+01
2.14614e+01	2.43007e+01
2.24781e+01	2.34061e+01
2.35429e+01	2.25386e+01
2.46581e+01	2.17093e+01
2.58262e+01	2.09124e+01
2.70496e+01	2.01392e+01
2.83310e+01	1.93971e+01
2.96730e+01	1.86870e+01
3.10787e+01	1.80031e+01
3.25509e+01	1.73422e+01
3.40929e+01	1.67035e+01
3.57079e+01	1.60934e+01
3.73994e+01	1.55027e+01
3.91710e+01	1.49347e+01
4.10266e+01	1.43977e+01
4.29700e+01	1.38710e+01
4.50056e+01	1.33722e+01
4.71375e+01	1.28837e+01
4.93705e+01	1.24239e+01
5.17092e+01	1.19727e+01
5.41587e+01	1.15427e+01
5.67243e+01	1.11317e+01
5.94113e+01	1.07305e+01
6.22257e+01	1.03483e+01
6.51734e+01	9.98204e+00
6.82607e+01	9.62983e+00
7.14943e+01	9.29115e+00
7.48810e+01	8.96574e+00
7.84282e+01	8.65368e+00
8.21434e+01	8.35353e+00
8.60346e+01	8.06514e+00
9.01102e+01	7.78857e+00
9.43788e+01	7.52290e+00
9.88496e+01	7.26762e+00
1.03532e+02	7.02225e+00
1.08437e+02	6.78821e+00
1.13573e+02	6.56172e+00
1.18953e+02	6.34358e+00
1.24588e+02	6.13656e+00
1.30490e+02	5.93962e+00
1.36672e+02	5.74733e+00
1.43146e+02	5.56401e+00
1.49927e+02	5.38700e+00
1.57029e+02	5.21879e+00
1.64468e+02	5.05688e+00
1.72259e+02	4.90239e+00
1.80419e+02	4.75439e+00
1.88965e+02	4.61198e+00
1.97917e+02	4.47522e+00
2.07292e+02	4.34543e+00
2.17112e+02	4.22007e+00
2.27397e+02	4.10089e+00
2.38169e+02	3.98668e+00
2.49451e+02	3.87748e+00
2.61268e+02	3.77288e+00
2.73644e+02	3.67229e+00
2.86607e+02	3.57672e+00
3.00184e+02	3.48581e+00
3.14404e+02	3.39806e+00
3.29297e+02	3.31543e+00
3.44896e+02	3.23602e+00
3.61234e+02	3.16040e+00
3.78346e+02	3.08786e+00
3.96269e+02	3.01943e+00
4.15040e+02	2.95404e+00
4.34701e+02	2.89132e+00
4.55294e+02	2.83193e+00
4.76861e+02	2.77581e+00
4.99451e+02	2.72208e+00
5.23110e+02	2.67108e+00
5.47890e+02	2.62286e+00
5.73844e+02	2.57728e+00
6.01028e+02	2.53441e+00
6.29499e+02	2.49313e+00
6.59319e+02	2.45480e+00
6.90551e+02	2.41878e+00
7.23263e+02	2.38454e+00
7.57525e+02	2.35206e+00
7.93410e+02	2.32205e+00
8.30994e+02	2.29394e+00
8.70359e+02	2.26761e+00
9.11589e+02	2.24310e+00
9.54772e+02	2.21842e+00
1.00000e+03	2.19559e+00