SourceProgram=fluka_2020_0
Target=WATER_LIQUID
IonizationPotential=77.0
Ion=Be
AtomicNumber=4
MassNumber=9
E [MeV/u]	dEdx [MeV/cm]
1.00000e-01	4.65565e+03
1.04737e-01	4.74573e+03
1.09699e-01	4.83365e+03
1.14895e-01	4.91843e+03
1.20338e-01	4.99951e+03
1.26038e-01	5.07751e+03
1.32009e-01	5.15125e+03
1.38262e-01	5.21973e+03
1.44812e-01	5.28307e+03
1.51672e-01	5.34089e+03
1.58857e-01	5.39232e+03
1.66382e-01	5.43785e+03
1.74263e-01	5.47725e+03
1.82518e-01	5.50872e+03
1.91164e-01	5.53370e+03
2.00220e-01	5.55168e+03
2.09705e-01	5.56158e+03
2.19639e-01	5.56432e+03
2.30043e-01	5.56000e+03
2.40940e-01	5.54732e+03
2.52354e-01	5.52729e+03
2.64308e-01	5.49967e+03
2.76829e-01	5.46462e+03
2.89942e-01	5.42114e+03
3.03677e-01	5.35595e+03
3.18063e-01	5.28767e+03
3.33129e-01	5.21767e+03
3.48910e-01	5.14678e+03
3.65438e-01	5.07580e+03
3.82749e-01	5.00471e+03
4.00881e-01	4.93566e+03
4.19871e-01	4.86682e+03
4.39760e-01	4.78990e+03
4.60592e-01	4.70394e+03
4.82411e-01	4.62052e+03
5.05263e-01	4.53849e+03
5.29198e-01	4.45759e+03
5.54266e-01	4.37671e+03
5.80523e-01	4.29747e+03
6.08022e-01	4.21850e+03
6.36825e-01	4.14023e+03
6.66992e-01	4.06232e+03
6.98588e-01	3.98528e+03
7.31681e-01	3.90823e+03
7.66341e-01	3.83113e+03
8.02643e-01	3.75509e+03
8.40665e-01	3.67795e+03
8.80488e-01	3.60297e+03
9.22198e-01	3.52681e+03
9.65883e-01	3.45170e+03
1.01164e+00	3.37666e+03
1.05956e+00	3.30267e+03
1.10975e+00	3.22940e+03
1.16232e+00	3.15732e+03
1.21738e+00	3.08583e+03
1.27505e+00	3.01387e+03
1.33545e+00	2.94229e+03
1.39871e+00	2.87227e+03
1.46497e+00	2.80574e+03
1.53437e+00	2.74093e+03
1.60705e+00	2.67502e+03
1.68318e+00	2.61009e+03
1.76291e+00	2.54358e+03
1.84642e+00	2.47797e+03
1.93389e+00	2.40751e+03
2.02550e+00	2.33458e+03
2.12145e+00	2.26349e+03
2.22195e+00	2.19503e+03
2.32720e+00	2.12815e+03
2.43744e+00	2.06186e+03
2.55291e+00	1.99836e+03
2.67384e+00	1.93714e+03
2.80050e+00	1.87707e+03
2.93317e+00	1.81810e+03
3.07211e+00	1.76101e+03
3.21764e+00	1.70383e+03
3.37006e+00	1.64869e+03
3.52971e+00	1.59574e+03
3.69691e+00	1.54248e+03
3.87204e+00	1.49148e+03
4.05546e+00	1.44134e+03
4.24757e+00	1.39300e+03
4.44878e+00	1.34590e+03
4.65953e+00	1.29966e+03
4.88025e+00	1.25479e+03
5.11143e+00	1.21158e+03
5.35357e+00	1.16954e+03
5.60717e+00	1.12934e+03
5.87279e+00	1.08992e+03
6.15099e+00	1.05109e+03
6.44236e+00	1.01500e+03
6.74754e+00	9.78774e+02
7.06718e+00	9.44104e+02
7.40196e+00	9.10583e+02
7.75260e+00	8.78122e+02
8.11984e+00	8.46701e+02
8.50449e+00	8.16351e+02
8.90735e+00	7.86988e+02
9.32930e+00	7.58645e+02
9.77124e+00	7.31307e+02
1.02341e+01	7.04867e+02
1.07189e+01	6.79300e+02
1.12267e+01	6.54634e+02
1.17585e+01	6.30965e+02
1.23155e+01	6.07668e+02
1.28989e+01	5.85811e+02
1.35099e+01	5.64184e+02
1.41499e+01	5.43566e+02
1.48202e+01	5.23694e+02
1.55223e+01	5.04627e+02
1.62576e+01	4.86080e+02
1.70277e+01	4.68208e+02
1.78343e+01	4.51041e+02
1.86791e+01	4.34610e+02
1.95640e+01	4.18514e+02
2.04907e+01	4.03274e+02
2.14614e+01	3.88337e+02
2.24781e+01	3.74233e+02
2.35429e+01	3.60399e+02
2.46581e+01	3.47187e+02
2.58262e+01	3.34475e+02
2.70496e+01	3.22228e+02
2.83310e+01	3.10476e+02
2.96730e+01	2.99081e+02
3.10787e+01	2.88181e+02
3.25509e+01	2.77603e+02
3.40929e+01	2.67537e+02
3.57079e+01	2.57808e+02
3.73994e+01	2.48417e+02
3.91710e+01	2.39371e+02
4.10266e+01	2.30727e+02
4.29700e+01	2.22358e+02
4.50056e+01	2.14337e+02
4.71375e+01	2.06623e+02
4.93705e+01	1.99132e+02
5.17092e+01	1.92059e+02
5.41587e+01	1.85137e+02
5.67243e+01	1.78552e+02
5.94113e+01	1.72186e+02
6.22257e+01	1.66089e+02
6.51734e+01	1.60229e+02
6.82607e+01	1.54544e+02
7.14943e+01	1.49060e+02
7.48810e+01	1.43846e+02
7.84282e+01	1.38822e+02
8.21434e+01	1.34001e+02
8.60346e+01	1.29359e+02
9.01102e+01	1.24817e+02
9.43788e+01	1.20642e+02
9.88496e+01	1.16559e+02
1.03532e+02	1.12574e+02
1.08437e+02	1.08879e+02
1.13573e+02	1.05223e+02
1.18953e+02	1.01765e+02
1.24588e+02	9.84259e+01
1.30490e+02	9.52399e+01
1.36672e+02	9.21821e+01
1.43146e+02	8.92671e+01
1.49927e+02	8.64416e+01
1.57029e+02	8.37519e+01
1.64468e+02	8.11481e+01
1.72259e+02	7.86662e+01
1.80419e+02	7.62810e+01
1.88965e+02	7.40128e+01
1.97917e+02	7.18393e+01
2.07292e+02	6.97411e+01
2.17112e+02	6.77337e+01
2.27397e+02	6.58332e+01
2.38169e+02	6.39965e+01
2.49451e+02	6.22443e+01
2.61268e+02	6.05688e+01
2.73644e+02	5.89679e+01
2.86607e+02	5.74256e+01
3.00184e+02	5.59681e+01
3.14404e+02	5.45754e+01
3.29297e+02	5.32341e+01
3.44896e+02	5.19663e+01
3.61234e+02	5.07506e+01
3.78346e+02	4.95942e+01
3.96269e+02	4.84854e+01
4.15040e+02	4.74374e+01
4.34701e+02	4.64375e+01
4.55294e+02	4.54845e+01
4.76861e+02	4.45847e+01
4.99451e+02	4.37305e+01
5.23110e+02	4.29146e+01
5.47890e+02	4.21433e+01
5.73844e+02	4.14102e+01
6.01028e+02	4.07194e+01
6.29499e+02	4.00564e+01
6.59319e+02	3.94435e+01
6.90551e+02	3.88587e+01
7.23263e+02	3.83090e+01
7.57525e+02	3.77962e+01
7.93410e+02	3.73109e+01
8.30994e+02	3.68553e+01
8.70359e+02	3.64289e+01
9.11589e+02	3.60308e+01
9.54772e+02	3.56505e+01
1.00000e+03	3.52774e+01