Reference: Inaniwa et al. (2010)
DOI: 10.1088/0031-9155/55/22/008
Model_Name: Kiefer-Chatterjee
Core_Radius_Type: energy-dependent
Atomic_Number: 1
Domain_Radius_um: 0.32
Nucleus_Radius_um: 3.9
Beta0_Gy-2: 0.0615
Data_Units: Energy [MeV/u], Dose-mean saturation-corrected specific energy [Gy]
Data:
1.0350E-01  2.9975E+01
1.1981E-01  2.9752E+01
1.3633E-01  2.8952E+01
1.5512E-01  2.7929E+01
1.7649E-01  2.7084E+01
1.9910E-01  2.6239E+01
2.2460E-01  2.5305E+01
2.5555E-01  2.4149E+01
2.9328E-01  2.3126E+01
3.2801E-01  2.2103E+01
3.6685E-01  2.1080E+01
4.1383E-01  1.9968E+01
4.6683E-01  1.8901E+01
5.2210E-01  1.7878E+01
5.8392E-01  1.6944E+01
6.5306E-01  1.5877E+01
7.3038E-01  1.4854E+01
8.2393E-01  1.3875E+01
9.5376E-01  1.2675E+01
1.1136E+00  1.1429E+01
1.3002E+00  1.0273E+01
1.5181E+00  9.2948E+00
1.7879E+00  8.2274E+00
2.0875E+00  7.3380E+00
2.4584E+00  6.4041E+00
2.8952E+00  5.6036E+00
3.2943E+00  4.9365E+00
3.8463E+00  4.2694E+00
4.4909E+00  3.6468E+00
5.2436E+00  3.1131E+00
6.3916E+00  2.5794E+00
7.9947E+00  2.0902E+00
1.0350E+01  1.5565E+00
1.3516E+01  1.2452E+00
1.7802E+01  9.3393E-01
2.2850E+01  7.5604E-01
2.9077E+01  5.7814E-01
3.8963E+01  4.4473E-01
5.3576E+01  3.5578E-01
8.1686E+01  2.6684E-01
1.2780E+02  1.7789E-01
2.9203E+02  8.8945E-02
8.2039E+02  8.8945E-02