Reference: Inaniwa et al. (2010)
DOI: 10.1088/0031-9155/55/22/008
Model_Name: Kiefer-Chatterjee
Core_Radius_Type: energy-dependent
Atomic_Number: 2
Domain_Radius_um: 0.32
Nucleus_Radius_um: 3.9
Beta0_Gy-2: 0.0615
Data_Units: Energy [MeV/u], Dose-mean saturation-corrected specific energy [Gy]
Data:
1.0440E-01  2.1925E+01
1.2401E-01  2.2058E+01
1.5379E-01  2.2414E+01
1.8585E-01  2.2903E+01
2.2460E-01  2.3482E+01
2.5999E-01  2.4104E+01
2.9582E-01  2.4638E+01
3.3950E-01  2.5216E+01
3.8629E-01  2.5839E+01
4.2466E-01  2.6550E+01
4.6283E-01  2.7351E+01
5.0011E-01  2.8062E+01
5.4507E-01  2.8774E+01
5.9920E-01  2.9441E+01
6.5306E-01  3.0064E+01
7.2412E-01  3.0553E+01
8.0292E-01  3.0909E+01
9.1358E-01  3.0953E+01
1.0575E+00  3.0642E+01
1.1726E+00  3.0152E+01
1.2780E+00  2.9574E+01
1.3929E+00  2.8907E+01
1.5051E+00  2.8151E+01
1.6264E+00  2.7484E+01
1.7574E+00  2.6595E+01
1.9153E+00  2.5572E+01
2.0875E+00  2.4593E+01
2.2948E+00  2.3170E+01
2.6564E+00  2.1213E+01
2.9710E+00  1.9657E+01
3.2943E+00  1.8234E+01
3.6843E+00  1.6588E+01
4.0502E+00  1.5254E+01
4.4909E+00  1.3964E+01
4.9796E+00  1.2630E+01
5.4742E+00  1.1607E+01
6.0698E+00  1.0540E+01
6.7885E+00  9.4282E+00
7.5923E+00  8.4943E+00
8.4913E+00  7.4714E+00
9.9143E+00  6.6264E+00
1.1477E+01  5.6480E+00
1.3989E+01  4.8030E+00
1.7348E+01  3.8691E+00
2.1699E+01  3.2020E+00
2.6679E+01  2.6239E+00
3.4244E+01  2.0902E+00
4.3953E+01  1.6900E+00
5.6904E+01  1.3342E+00
7.6251E+01  1.0229E+00
1.0759E+02  7.5604E-01
1.5578E+02  5.7814E-01
2.2363E+02  4.4473E-01
3.4391E+02  3.1131E-01
5.9662E+02  2.2236E-01
9.6615E+02  2.2236E-01