SourceProgram=mstar_3_12
Target=WATER_LIQUID
IonizationPotential=75.0
Ion=H
AtomicNumber=1
MassNumber=1
E [MeV/u]	dEdx [MeV/cm]
1.00000E-01 8.13800E+02
1.12500E-01 7.98300E+02
1.25000E-01 7.78500E+02
1.37500E-01 7.56300E+02
1.50000E-01 7.34100E+02
1.62500E-01 7.13400E+02
1.75000E-01 6.94000E+02
1.87500E-01 6.75700E+02
2.00000E-01 6.58500E+02
2.12500E-01 6.42200E+02
2.25000E-01 6.26700E+02
2.37500E-01 6.11900E+02
2.50000E-01 5.97900E+02
3.12500E-01 5.36500E+02
3.75000E-01 4.86800E+02
4.37500E-01 4.45600E+02
5.00000E-01 4.10900E+02
5.62500E-01 3.81400E+02
6.25000E-01 3.56300E+02
6.87500E-01 3.34600E+02
7.50000E-01 3.15700E+02
8.75000E-01 2.84300E+02
1.00000E+00 2.59300E+02
1.12500E+00 2.38700E+02
1.25000E+00 2.21600E+02
1.37500E+00 2.07100E+02
1.50000E+00 1.94500E+02
1.62500E+00 1.83500E+02
1.75000E+00 1.73900E+02
1.87500E+00 1.65300E+02
2.00000E+00 1.57700E+02
2.12500E+00 1.50700E+02
2.25000E+00 1.44500E+02
2.37500E+00 1.38800E+02
2.50000E+00 1.33600E+02
3.12500E+00 1.12900E+02
3.75000E+00 9.82200E+01
4.37500E+00 8.72100E+01
5.00000E+00 7.86100E+01
5.62500E+00 7.17000E+01
6.25000E+00 6.59900E+01
6.87500E+00 6.12000E+01
7.50000E+00 5.71100E+01
8.75000E+00 5.05000E+01
1.00000E+01 4.53700E+01
1.12500E+01 4.12700E+01
1.25000E+01 3.79100E+01
1.37500E+01 3.51000E+01
1.50000E+01 3.27100E+01
1.62500E+01 3.06500E+01
1.75000E+01 2.88700E+01
1.87500E+01 2.72900E+01
2.00000E+01 2.59000E+01
2.12500E+01 2.46600E+01
2.25000E+01 2.35400E+01
2.37500E+01 2.25300E+01
2.50000E+01 2.16100E+01
3.12500E+01 1.80400E+01
3.75000E+01 1.55700E+01
4.37500E+01 1.37600E+01
5.00000E+01 1.23700E+01
5.62500E+01 1.12700E+01
6.25000E+01 1.03800E+01
6.87500E+01 9.63500E+00
7.50000E+01 9.00900E+00
8.75000E+01 8.01000E+00
1.00000E+02 7.24700E+00
1.12500E+02 6.64500E+00
1.25000E+02 6.15700E+00
1.37500E+02 5.75400E+00
1.50000E+02 5.41600E+00
1.62500E+02 5.12700E+00
1.75000E+02 4.87800E+00
1.87500E+02 4.66100E+00
2.00000E+02 4.47000E+00
2.12500E+02 4.30100E+00
2.25000E+02 4.15000E+00
2.37500E+02 4.01500E+00
2.50000E+02 3.89300E+00
3.12500E+02 3.42800E+00
3.75000E+02 3.11700E+00
4.37500E+02 2.89700E+00
5.00000E+02 2.73400E+00
5.62500E+02 2.61000E+00
6.25000E+02 2.51200E+00
6.87500E+02 2.43400E+00
7.50000E+02 2.37000E+00
8.75000E+02 2.27500E+00
1.00000E+03 2.20700E+00