SourceProgram=mstar_3_12
Target=WATER_LIQUID
IonizationPotential=75.0
Ion=He
AtomicNumber=2
MassNumber=4
E [MeV/u]	dEdx [MeV/cm]
1.00000E-01 2.06232E+03
1.12500E-01 2.12814E+03
1.25000E-01 2.17830E+03
1.37500E-01 2.21499E+03
1.50000E-01 2.24013E+03
1.62500E-01 2.25541E+03
1.75000E-01 2.26231E+03
1.87500E-01 2.26214E+03
2.00000E-01 2.25603E+03
2.12500E-01 2.24500E+03
2.25000E-01 2.22990E+03
2.37500E-01 2.21148E+03
2.50000E-01 2.19039E+03
3.12500E-01 2.05009E+03
3.75000E-01 1.89611E+03
4.37500E-01 1.75227E+03
5.00000E-01 1.62370E+03
5.62500E-01 1.51088E+03
6.25000E-01 1.41369E+03
6.87500E-01 1.32927E+03
7.50000E-01 1.25540E+03
8.75000E-01 1.13234E+03
1.00000E+00 1.03381E+03
1.12500E+00 9.52693E+02
1.25000E+00 8.84757E+02
1.37500E+00 8.26877E+02
1.50000E+00 7.77098E+02
1.62500E+00 7.33422E+02
1.75000E+00 6.94882E+02
1.87500E+00 6.60698E+02
2.00000E+00 6.30128E+02
2.12500E+00 6.02530E+02
2.25000E+00 5.77577E+02
2.37500E+00 5.54835E+02
2.50000E+00 5.34003E+02
3.12500E+00 4.51383E+02
3.75000E+00 3.92708E+02
4.37500E+00 3.48705E+02
5.00000E+00 3.14363E+02
5.62500E+00 2.86722E+02
6.25000E+00 2.63917E+02
6.87500E+00 2.44756E+02
7.50000E+00 2.28414E+02
8.75000E+00 2.01997E+02
1.00000E+01 1.81493E+02
1.12500E+01 1.65089E+02
1.25000E+01 1.51638E+02
1.37500E+01 1.40392E+02
1.50000E+01 1.30840E+02
1.62500E+01 1.22631E+02
1.75000E+01 1.15475E+02
1.87500E+01 1.09185E+02
2.00000E+01 1.03611E+02
2.12500E+01 9.86347E+01
2.25000E+01 9.41621E+01
2.37500E+01 9.01193E+01
2.50000E+01 8.64458E+01
3.12500E+01 7.21540E+01
3.75000E+01 6.22904E+01
4.37500E+01 5.50500E+01
5.00000E+01 4.94968E+01
5.62500E+01 4.50957E+01
6.25000E+01 4.15177E+01
6.87500E+01 3.85490E+01
7.50000E+01 3.60443E+01
8.75000E+01 3.20471E+01
1.00000E+02 2.89953E+01
1.12500E+02 2.65866E+01
1.25000E+02 2.46360E+01
1.37500E+02 2.30235E+01
1.50000E+02 2.16680E+01
1.62500E+02 2.05124E+01
1.75000E+02 1.95156E+01
1.87500E+02 1.86469E+01
2.00000E+02 1.78834E+01
2.12500E+02 1.72070E+01
2.25000E+02 1.66038E+01
2.37500E+02 1.60626E+01
2.50000E+02 1.55745E+01
3.12500E+02 1.37130E+01
3.75000E+02 1.24720E+01
4.37500E+02 1.15920E+01
5.00000E+02 1.09400E+01
5.62500E+02 1.04410E+01
6.25000E+02 1.00500E+01
6.87500E+02 9.73700E+00
7.50000E+02 9.48330E+00
8.75000E+02 9.10210E+00
1.00000E+03 8.83110E+00