SourceProgram=mstar_3_12
Target=WATER_LIQUID
IonizationPotential=75.0
Ion=Li
AtomicNumber=3
MassNumber=7
E [MeV/u]	dEdx [MeV/cm]
1.00000E-01 2.99247E+03
1.12500E-01 3.14321E+03
1.25000E-01 3.27224E+03
1.37500E-01 3.38161E+03
1.50000E-01 3.47326E+03
1.62500E-01 3.54897E+03
1.75000E-01 3.61042E+03
1.87500E-01 3.65918E+03
2.00000E-01 3.69668E+03
2.12500E-01 3.72426E+03
2.25000E-01 3.74313E+03
2.37500E-01 3.75436E+03
2.50000E-01 3.75896E+03
3.12500E-01 3.68955E+03
3.75000E-01 3.54645E+03
4.37500E-01 3.38199E+03
5.00000E-01 3.21562E+03
5.62500E-01 3.05641E+03
6.25000E-01 2.91054E+03
6.87500E-01 2.77705E+03
7.50000E-01 2.65491E+03
8.75000E-01 2.44005E+03
1.00000E+00 2.25750E+03
1.12500E+00 2.10016E+03
1.25000E+00 1.96370E+03
1.37500E+00 1.84428E+03
1.50000E+00 1.73945E+03
1.62500E+00 1.64597E+03
1.75000E+00 1.56247E+03
1.87500E+00 1.48770E+03
2.00000E+00 1.42036E+03
2.12500E+00 1.35921E+03
2.25000E+00 1.30368E+03
2.37500E+00 1.25290E+03
2.50000E+00 1.20627E+03
3.12500E+00 1.02048E+03
3.75000E+00 8.88081E+02
4.37500E+00 7.88680E+02
5.00000E+00 7.11072E+02
5.62500E+00 6.48596E+02
6.25000E+00 5.97043E+02
6.87500E+00 5.53724E+02
7.50000E+00 5.16776E+02
8.75000E+00 4.57042E+02
1.00000E+01 4.10674E+02
1.12500E+01 3.73575E+02
1.25000E+01 3.43151E+02
1.37500E+01 3.17714E+02
1.50000E+01 2.96107E+02
1.62500E+01 2.77537E+02
1.75000E+01 2.61349E+02
1.87500E+01 2.47119E+02
2.00000E+01 2.34508E+02
2.12500E+01 2.23249E+02
2.25000E+01 2.13130E+02
2.37500E+01 2.03983E+02
2.50000E+01 1.95671E+02
3.12500E+01 1.63332E+02
3.75000E+01 1.41011E+02
4.37500E+01 1.24625E+02
5.00000E+01 1.12057E+02
5.62500E+01 1.02096E+02
6.25000E+01 9.39975E+01
6.87500E+01 8.72780E+01
7.50000E+01 8.16086E+01
8.75000E+01 7.25606E+01
1.00000E+02 6.56524E+01
1.12500E+02 6.01998E+01
1.25000E+02 5.57840E+01
1.37500E+02 5.21336E+01
1.50000E+02 4.90649E+01
1.62500E+02 4.64488E+01
1.75000E+02 4.41921E+01
1.87500E+02 4.22254E+01
2.00000E+02 4.04968E+01
2.12500E+02 3.89655E+01
2.25000E+02 3.75998E+01
2.37500E+02 3.63745E+01
2.50000E+02 3.52694E+01
3.12500E+02 3.10548E+01
3.75000E+02 2.82450E+01
4.37500E+02 2.62525E+01
5.00000E+02 2.47763E+01
5.62500E+02 2.36465E+01
6.25000E+02 2.27612E+01
6.87500E+02 2.20525E+01
7.50000E+02 2.14781E+01
8.75000E+02 2.06150E+01
1.00000E+03 2.00015E+01