SourceProgram=mstar_3_12
Target=WATER_LIQUID
IonizationPotential=75.0
Ion=Be
AtomicNumber=4
MassNumber=9
E [MeV/u]	dEdx [MeV/cm]
1.00000E-01 4.01488E+03
1.12500E-01 4.22796E+03
1.25000E-01 4.41311E+03
1.37500E-01 4.57290E+03
1.50000E-01 4.70971E+03
1.62500E-01 4.82580E+03
1.75000E-01 4.92325E+03
1.87500E-01 5.00401E+03
2.00000E-01 5.06988E+03
2.12500E-01 5.12259E+03
2.25000E-01 5.16361E+03
2.37500E-01 5.19435E+03
2.50000E-01 5.21608E+03
3.12500E-01 5.19605E+03
3.75000E-01 5.06810E+03
4.37500E-01 4.90237E+03
5.00000E-01 4.72554E+03
5.62500E-01 4.55076E+03
6.25000E-01 4.38775E+03
6.87500E-01 4.23593E+03
7.50000E-01 4.09462E+03
8.75000E-01 3.83950E+03
1.00000E+00 3.61497E+03
1.12500E+00 3.41440E+03
1.25000E+00 3.23457E+03
1.37500E+00 3.07216E+03
1.50000E+00 2.92553E+03
1.62500E+00 2.79116E+03
1.75000E+00 2.66819E+03
1.87500E+00 2.55574E+03
2.00000E+00 2.45247E+03
2.12500E+00 2.35707E+03
2.25000E+00 2.26911E+03
2.37500E+00 2.18755E+03
2.50000E+00 2.11173E+03
3.12500E+00 1.80156E+03
3.75000E+00 1.57373E+03
4.37500E+00 1.39998E+03
5.00000E+00 1.26322E+03
5.62500E+00 1.15266E+03
6.25000E+00 1.06123E+03
6.87500E+00 9.84315E+02
7.50000E+00 9.18673E+02
8.75000E+00 8.12510E+02
1.00000E+01 7.30085E+02
1.12500E+01 6.64132E+02
1.25000E+01 6.10047E+02
1.37500E+01 5.64825E+02
1.50000E+01 5.26412E+02
1.62500E+01 4.93399E+02
1.75000E+01 4.64620E+02
1.87500E+01 4.39322E+02
2.00000E+01 4.16903E+02
2.12500E+01 3.96888E+02
2.25000E+01 3.78897E+02
2.37500E+01 3.62636E+02
2.50000E+01 3.47859E+02
3.12500E+01 2.90368E+02
3.75000E+01 2.50686E+02
4.37500E+01 2.21556E+02
5.00000E+01 1.99212E+02
5.62500E+01 1.81504E+02
6.25000E+01 1.67107E+02
6.87500E+01 1.55161E+02
7.50000E+01 1.45082E+02
8.75000E+01 1.28997E+02
1.00000E+02 1.16715E+02
1.12500E+02 1.07022E+02
1.25000E+02 9.91716E+01
1.37500E+02 9.26820E+01
1.50000E+02 8.72265E+01
1.62500E+02 8.25756E+01
1.75000E+02 7.85637E+01
1.87500E+02 7.50673E+01
2.00000E+02 7.19944E+01
2.12500E+02 6.92719E+01
2.25000E+02 6.68441E+01
2.37500E+02 6.46658E+01
2.50000E+02 6.27012E+01
3.12500E+02 5.52085E+01
3.75000E+02 5.02133E+01
4.37500E+02 4.66712E+01
5.00000E+02 4.40468E+01
5.62500E+02 4.20382E+01
6.25000E+02 4.04643E+01
6.87500E+02 3.92045E+01
7.50000E+02 3.81833E+01
8.75000E+02 3.66490E+01
1.00000E+03 3.55582E+01