SourceProgram=mstar_3_12
Target=WATER_LIQUID
IonizationPotential=75.0
Ion=B
AtomicNumber=5
MassNumber=10
E [MeV/u]	dEdx [MeV/cm]
1.00000E-01 5.29199E+03
1.12500E-01 5.57396E+03
1.25000E-01 5.81926E+03
1.37500E-01 6.03133E+03
1.50000E-01 6.21335E+03
1.62500E-01 6.36827E+03
1.75000E-01 6.49887E+03
1.87500E-01 6.60773E+03
2.00000E-01 6.69721E+03
2.12500E-01 6.76957E+03
2.25000E-01 6.82676E+03
2.37500E-01 6.87061E+03
2.50000E-01 6.90278E+03
3.12500E-01 6.89626E+03
3.75000E-01 6.74994E+03
4.37500E-01 6.55494E+03
5.00000E-01 6.34542E+03
5.62500E-01 6.13814E+03
6.25000E-01 5.94567E+03
6.87500E-01 5.76698E+03
7.50000E-01 5.60102E+03
8.75000E-01 5.30169E+03
1.00000E+00 5.03762E+03
1.12500E+00 4.80012E+03
1.25000E+00 4.58537E+03
1.37500E+00 4.38944E+03
1.50000E+00 4.21072E+03
1.62500E+00 4.04484E+03
1.75000E+00 3.89122E+03
1.87500E+00 3.74911E+03
2.00000E+00 3.61711E+03
2.12500E+00 3.49372E+03
2.25000E+00 3.37874E+03
2.37500E+00 3.27099E+03
2.50000E+00 3.16976E+03
3.12500E+00 2.74450E+03
3.75000E+00 2.41999E+03
4.37500E+00 2.16552E+03
5.00000E+00 1.96120E+03
5.62500E+00 1.79371E+03
6.25000E+00 1.65385E+03
6.87500E+00 1.53541E+03
7.50000E+00 1.43386E+03
8.75000E+00 1.26896E+03
1.00000E+01 1.14052E+03
1.12500E+01 1.03761E+03
1.25000E+01 9.53158E+02
1.37500E+01 8.82521E+02
1.50000E+01 8.22512E+02
1.62500E+01 7.70933E+02
1.75000E+01 7.25967E+02
1.87500E+01 6.86440E+02
2.00000E+01 6.51411E+02
2.12500E+01 6.20137E+02
2.25000E+01 5.92027E+02
2.37500E+01 5.66618E+02
2.50000E+01 5.43530E+02
3.12500E+01 4.53699E+02
3.75000E+01 3.91697E+02
4.37500E+01 3.46181E+02
5.00000E+01 3.11269E+02
5.62500E+01 2.83600E+02
6.25000E+01 2.61104E+02
6.87500E+01 2.42439E+02
7.50000E+01 2.26691E+02
8.75000E+01 2.01557E+02
1.00000E+02 1.82368E+02
1.12500E+02 1.67222E+02
1.25000E+02 1.54956E+02
1.37500E+02 1.44816E+02
1.50000E+02 1.36292E+02
1.62500E+02 1.29024E+02
1.75000E+02 1.22756E+02
1.87500E+02 1.17293E+02
2.00000E+02 1.12491E+02
2.12500E+02 1.08237E+02
2.25000E+02 1.04444E+02
2.37500E+02 1.01040E+02
2.50000E+02 9.79706E+01
3.12500E+02 8.62633E+01
3.75000E+02 7.84584E+01
4.37500E+02 7.29237E+01
5.00000E+02 6.88231E+01
5.62500E+02 6.56847E+01
6.25000E+02 6.32255E+01
6.87500E+02 6.12570E+01
7.50000E+02 5.96614E+01
8.75000E+02 5.72640E+01
1.00000E+03 5.55597E+01