SourceProgram=mstar_3_12
Target=WATER_LIQUID
IonizationPotential=75.0
Ion=C
AtomicNumber=6
MassNumber=12
E [MeV/u]	dEdx [MeV/cm]
1.00000E-01 6.68210E+03
1.12500E-01 7.04613E+03
1.25000E-01 7.36370E+03
1.37500E-01 7.63905E+03
1.50000E-01 7.87613E+03
1.62500E-01 8.07869E+03
1.75000E-01 8.25018E+03
1.87500E-01 8.39388E+03
2.00000E-01 8.51277E+03
2.12500E-01 8.60973E+03
2.25000E-01 8.68724E+03
2.37500E-01 8.74764E+03
2.50000E-01 8.79303E+03
3.12500E-01 8.80502E+03
3.75000E-01 8.63652E+03
4.37500E-01 8.40435E+03
5.00000E-01 8.15257E+03
5.62500E-01 7.90278E+03
6.25000E-01 7.67131E+03
6.87500E-01 7.45688E+03
7.50000E-01 7.25819E+03
8.75000E-01 6.90092E+03
1.00000E+00 6.58663E+03
1.12500E+00 6.30415E+03
1.25000E+00 6.04867E+03
1.37500E+00 5.81519E+03
1.50000E+00 5.60185E+03
1.62500E+00 5.40304E+03
1.75000E+00 5.21820E+03
1.87500E+00 5.04657E+03
2.00000E+00 4.88647E+03
2.12500E+00 4.73607E+03
2.25000E+00 4.59530E+03
2.37500E+00 4.46271E+03
2.50000E+00 4.33752E+03
3.12500E+00 3.80389E+03
3.75000E+00 3.38681E+03
4.37500E+00 3.05281E+03
5.00000E+00 2.77981E+03
5.62500E+00 2.55266E+03
6.25000E+00 2.36067E+03
6.87500E+00 2.19648E+03
7.50000E+00 2.05459E+03
8.75000E+00 1.82219E+03
1.00000E+01 1.63972E+03
1.12500E+01 1.49277E+03
1.25000E+01 1.37180E+03
1.37500E+01 1.27042E+03
1.50000E+01 1.18419E+03
1.62500E+01 1.11001E+03
1.75000E+01 1.04532E+03
1.87500E+01 9.88429E+02
2.00000E+01 9.38005E+02
2.12500E+01 8.92981E+02
2.25000E+01 8.52510E+02
2.37500E+01 8.15925E+02
2.50000E+01 7.82680E+02
3.12500E+01 6.53327E+02
3.75000E+01 5.64043E+02
4.37500E+01 4.98500E+02
5.00000E+01 4.48228E+02
5.62500E+01 4.08384E+02
6.25000E+01 3.75990E+02
6.87500E+01 3.49112E+02
7.50000E+01 3.26434E+02
8.75000E+01 2.90243E+02
1.00000E+02 2.62610E+02
1.12500E+02 2.40799E+02
1.25000E+02 2.23136E+02
1.37500E+02 2.08534E+02
1.50000E+02 1.96260E+02
1.62500E+02 1.85795E+02
1.75000E+02 1.76768E+02
1.87500E+02 1.68902E+02
2.00000E+02 1.61987E+02
2.12500E+02 1.55862E+02
2.25000E+02 1.50399E+02
2.37500E+02 1.45498E+02
2.50000E+02 1.41078E+02
3.12500E+02 1.24219E+02
3.75000E+02 1.12980E+02
4.37500E+02 1.05010E+02
5.00000E+02 9.91052E+01
5.62500E+02 9.45859E+01
6.25000E+02 9.10448E+01
6.87500E+02 8.82101E+01
7.50000E+02 8.59124E+01
8.75000E+02 8.24601E+01
1.00000E+03 8.00059E+01