SourceProgram=mstar_3_12
Target=WATER_LIQUID
IonizationPotential=75.0
Ion=N
AtomicNumber=7
MassNumber=14
E [MeV/u]	dEdx [MeV/cm]
1.00000E-01 7.87383E+03
1.12500E-01 8.32866E+03
1.25000E-01 8.72868E+03
1.37500E-01 9.07846E+03
1.50000E-01 9.38236E+03
1.62500E-01 9.64460E+03
1.75000E-01 9.86913E+03
1.87500E-01 1.00597E+04
2.00000E-01 1.02199E+04
2.12500E-01 1.03530E+04
2.25000E-01 1.04620E+04
2.37500E-01 1.05496E+04
2.50000E-01 1.06185E+04
3.12500E-01 1.06931E+04
3.75000E-01 1.05350E+04
4.37500E-01 1.02892E+04
5.00000E-01 1.00120E+04
5.62500E-01 9.73181E+03
6.25000E-01 9.47002E+03
6.87500E-01 9.22612E+03
7.50000E-01 8.99921E+03
8.75000E-01 8.58947E+03
1.00000E+00 8.22754E+03
1.12500E+00 7.90108E+03
1.25000E+00 7.60499E+03
1.37500E+00 7.33370E+03
1.50000E+00 7.08530E+03
1.62500E+00 6.85310E+03
1.75000E+00 6.63662E+03
1.87500E+00 6.43515E+03
2.00000E+00 6.24676E+03
2.12500E+00 6.06926E+03
2.25000E+00 5.90272E+03
2.37500E+00 5.74542E+03
2.50000E+00 5.59647E+03
3.12500E+00 4.95618E+03
3.75000E+00 4.44846E+03
4.37500E+00 4.03630E+03
5.00000E+00 3.69517E+03
5.62500E+00 3.40810E+03
6.25000E+00 3.16299E+03
6.87500E+00 2.95149E+03
7.50000E+00 2.76731E+03
8.75000E+00 2.46276E+03
1.00000E+01 2.22122E+03
1.12500E+01 2.02524E+03
1.25000E+01 1.86302E+03
1.37500E+01 1.72653E+03
1.50000E+01 1.61009E+03
1.62500E+01 1.50972E+03
1.75000E+01 1.42205E+03
1.87500E+01 1.34486E+03
2.00000E+01 1.27639E+03
2.12500E+01 1.21522E+03
2.25000E+01 1.16020E+03
2.37500E+01 1.11046E+03
2.50000E+01 1.06524E+03
3.12500E+01 8.89236E+02
3.75000E+01 7.67722E+02
4.37500E+01 6.78513E+02
5.00000E+01 6.10088E+02
5.62500E+01 5.55855E+02
6.25000E+01 5.11764E+02
6.87500E+01 4.75180E+02
7.50000E+01 4.44314E+02
8.75000E+01 3.95052E+02
1.00000E+02 3.57441E+02
1.12500E+02 3.27754E+02
1.25000E+02 3.03713E+02
1.37500E+02 2.83839E+02
1.50000E+02 2.67131E+02
1.62500E+02 2.52888E+02
1.75000E+02 2.40601E+02
1.87500E+02 2.29894E+02
2.00000E+02 2.20483E+02
2.12500E+02 2.12145E+02
2.25000E+02 2.04710E+02
2.37500E+02 1.98039E+02
2.50000E+02 1.92022E+02
3.12500E+02 1.69076E+02
3.75000E+02 1.53778E+02
4.37500E+02 1.42931E+02
5.00000E+02 1.34893E+02
5.62500E+02 1.28742E+02
6.25000E+02 1.23922E+02
6.87500E+02 1.20064E+02
7.50000E+02 1.16936E+02
8.75000E+02 1.12237E+02
1.00000E+03 1.08897E+02