SourceProgram=mstar_3_12
Target=WATER_LIQUID
IonizationPotential=75.0
Ion=F
AtomicNumber=9
MassNumber=19
E [MeV/u]	dEdx [MeV/cm]
1.00000E-01 9.11882E+03
1.12500E-01 9.77791E+03
1.25000E-01 1.03737E+04
1.37500E-01 1.09093E+04
1.50000E-01 1.13882E+04
1.62500E-01 1.18141E+04
1.75000E-01 1.21909E+04
1.87500E-01 1.25224E+04
2.00000E-01 1.28125E+04
2.12500E-01 1.30650E+04
2.25000E-01 1.32833E+04
2.37500E-01 1.34709E+04
2.50000E-01 1.36309E+04
3.12500E-01 1.40312E+04
3.75000E-01 1.40535E+04
4.37500E-01 1.39033E+04
5.00000E-01 1.36697E+04
5.62500E-01 1.34015E+04
6.25000E-01 1.31359E+04
6.87500E-01 1.28776E+04
7.50000E-01 1.26297E+04
8.75000E-01 1.21660E+04
1.00000E+00 1.17419E+04
1.12500E+00 1.13491E+04
1.25000E+00 1.09859E+04
1.37500E+00 1.06479E+04
1.50000E+00 1.03350E+04
1.62500E+00 1.00390E+04
1.75000E+00 9.76069E+03
1.87500E+00 9.49985E+03
2.00000E+00 9.25441E+03
2.12500E+00 9.02172E+03
2.25000E+00 8.80232E+03
2.37500E+00 8.59406E+03
2.50000E+00 8.39592E+03
3.12500E+00 7.53378E+03
3.75000E+00 6.83741E+03
4.37500E+00 6.26294E+03
5.00000E+00 5.78047E+03
5.62500E+00 5.36892E+03
6.25000E+00 5.01306E+03
6.87500E+00 4.70244E+03
7.50000E+00 4.42906E+03
8.75000E+00 3.97078E+03
1.00000E+01 3.60137E+03
1.12500E+01 3.29759E+03
1.25000E+01 3.04334E+03
1.37500E+01 2.82744E+03
1.50000E+01 2.64188E+03
1.62500E+01 2.48093E+03
1.75000E+01 2.33961E+03
1.87500E+01 2.21468E+03
2.00000E+01 2.10347E+03
2.12500E+01 2.00382E+03
2.25000E+01 1.91399E+03
2.37500E+01 1.83261E+03
2.50000E+01 1.75851E+03
3.12500E+01 1.46919E+03
3.75000E+01 1.26881E+03
4.37500E+01 1.12152E+03
5.00000E+01 1.00847E+03
5.62500E+01 9.18843E+02
6.25000E+01 8.45969E+02
6.87500E+01 7.85498E+02
7.50000E+01 7.34475E+02
8.75000E+01 6.53045E+02
1.00000E+02 5.90871E+02
1.12500E+02 5.41798E+02
1.25000E+02 5.02056E+02
1.37500E+02 4.69202E+02
1.50000E+02 4.41584E+02
1.62500E+02 4.18039E+02
1.75000E+02 3.97729E+02
1.87500E+02 3.80028E+02
2.00000E+02 3.64471E+02
2.12500E+02 3.50689E+02
2.25000E+02 3.38398E+02
2.37500E+02 3.27370E+02
2.50000E+02 3.17425E+02
3.12500E+02 2.79493E+02
3.75000E+02 2.54205E+02
4.37500E+02 2.36273E+02
5.00000E+02 2.22987E+02
5.62500E+02 2.12818E+02
6.25000E+02 2.04851E+02
6.87500E+02 1.98473E+02
7.50000E+02 1.93303E+02
8.75000E+02 1.85535E+02
1.00000E+03 1.80013E+02