Reference: Inaniwa et al. (2018)
DOI: 10.1088/1361-6560/aabede
Model_Name: Kiefer-Chatterjee
Model_Version: stochastic
Core_Radius_Type: energy-dependent
Atomic_Number: 7
Domain_Radius_um: 0.28
Nucleus_Radius_um: 8.1
z0_Gy: 66.0
Data_Units: Energy [MeV/u], Dose-mean specific energy [Gy]
Data:
2.080E-01  6.434E+02
2.365E-01  6.509E+02
2.791E-01  6.555E+02
3.233E-01  6.555E+02
3.768E-01  6.556E+02
4.613E-01  6.497E+02
5.376E-01  6.407E+02
6.267E-01  6.243E+02
7.261E-01  6.079E+02
8.309E-01  5.885E+02
9.568E-01  5.631E+02
1.143E+00  5.318E+02
1.452E+00  4.870E+02
1.724E+00  4.496E+02
2.047E+00  4.123E+02
2.476E+00  3.660E+02
2.941E+00  3.241E+02
3.407E+00  2.898E+02
3.900E+00  2.599E+02
4.518E+00  2.300E+02
5.299E+00  2.002E+02
6.292E+00  1.658E+02
7.563E+00  1.404E+02
9.091E+00  1.136E+02
1.155E+01  9.270E+01
1.458E+01  7.482E+01
1.874E+01  5.845E+01
2.409E+01  4.807E+01
3.417E+01  3.472E+01
4.530E+01  2.884E+01
6.230E+01  2.147E+01
9.221E+01  1.413E+01
1.399E+02  9.783E+00
2.201E+02  6.950E+00
