Reference: Inaniwa et al. (2018)
DOI: 10.1088/1361-6560/aabede
Model_Name: Kiefer-Chatterjee
Model_Version: stochastic
Core_Radius_Type: energy-dependent
Atomic_Number: 9
Domain_Radius_um: 0.28
Nucleus_Radius_um: 8.1
z0_Gy: 66.0
Data_Units: Energy [MeV/u], Dose-mean specific energy [Gy]
Data:
2.116E-01  8.275E+02
2.377E-01  8.410E+02
2.804E-01  8.590E+02
3.329E-01  8.710E+02
4.050E-01  8.786E+02
5.019E-01  8.756E+02
6.032E-01  8.652E+02
6.988E-01  8.533E+02
8.146E-01  8.309E+02
9.732E-01  8.026E+02
1.128E+00  7.712E+02
1.315E+00  7.353E+02
1.505E+00  7.040E+02
1.733E+00  6.621E+02
1.995E+00  6.218E+02
2.298E+00  5.784E+02
2.646E+00  5.306E+02
2.992E+00  4.902E+02
3.425E+00  4.424E+02
3.944E+00  3.976E+02
4.599E+00  3.512E+02
5.136E+00  3.154E+02
6.099E+00  2.750E+02
6.937E+00  2.466E+02
7.940E+00  2.108E+02
9.428E+00  1.809E+02
1.212E+01  1.436E+02
1.503E+01  1.182E+02
1.956E+01  9.139E+01
2.593E+01  7.353E+01
3.610E+01  5.270E+01
5.279E+01  3.637E+01
8.157E+01  2.755E+01
1.373E+02  1.576E+01
2.215E+02  9.944E+00
