Reference: Inaniwa et al. (2018)
DOI: 10.1088/1361-6560/aabede
Model_Name: Kiefer-Chatterjee
Model_Version: stochastic
Core_Radius_Type: energy-dependent
Atomic_Number: 8
Domain_Radius_um: 0.28
Nucleus_Radius_um: 8.1
z0_Gy: 66.0
Data_Units: Energy [MeV/u], Dose-mean specific energy [Gy]
Data:
2.130E-01  7.377E+02
2.408E-01  7.497E+02
2.705E-01  7.572E+02
3.095E-01  7.632E+02
3.674E-01  7.663E+02
4.335E-01  7.664E+02
4.901E-01  7.604E+02
5.890E-01  7.485E+02
6.866E-01  7.336E+02
8.004E-01  7.127E+02
9.160E-01  6.903E+02
1.023E+00  6.664E+02
1.192E+00  6.380E+02
1.399E+00  6.037E+02
1.601E+00  5.723E+02
1.866E+00  5.364E+02
2.123E+00  5.006E+02
2.430E+00  4.617E+02
2.764E+00  4.259E+02
3.164E+00  3.885E+02
3.621E+00  3.496E+02
4.170E+00  3.123E+02
4.892E+00  2.719E+02
5.598E+00  2.406E+02
6.407E+00  2.152E+02
7.608E+00  1.808E+02
9.605E+00  1.450E+02
1.243E+01  1.092E+02
1.668E+01  8.534E+01
2.184E+01  6.898E+01
2.878E+01  5.112E+01
3.792E+01  3.925E+01
5.151E+01  3.337E+01
7.085E+01  2.301E+01
9.864E+01  1.864E+01
1.433E+02  1.129E+01
2.270E+02  3.968E+00
