Reference: Inaniwa et al. (2018)
DOI: 10.1088/1361-6560/aabede
Model_Name: Kiefer-Chatterjee
Model_Version: stochastic
Core_Radius_Type: energy-dependent
Atomic_Number: 6
Domain_Radius_um: 0.28
Nucleus_Radius_um: 8.1
z0_Gy: 66.0
Data_Units: Energy [MeV/u], Dose-mean specific energy [Gy]
Data:
2.094E-01  5.462E+02
2.470E-01  5.447E+02
2.951E-01  5.508E+02
3.460E-01  5.463E+02
4.058E-01  5.389E+02
4.908E-01  5.270E+02
5.827E-01  5.151E+02
7.046E-01  4.912E+02
8.214E-01  4.733E+02
9.873E-01  4.464E+02
1.158E+00  4.196E+02
1.350E+00  3.897E+02
1.653E+00  3.569E+02
1.950E+00  3.255E+02
2.178E+00  3.061E+02
2.539E+00  2.762E+02
2.888E+00  2.538E+02
3.367E+00  2.239E+02
3.806E+00  1.985E+02
4.356E+00  1.791E+02
5.173E+00  1.493E+02
6.256E+00  1.209E+02
7.658E+00  1.015E+02
9.093E+00  8.214E+01
1.080E+01  7.173E+01
1.354E+01  5.684E+01
1.720E+01  4.645E+01
2.132E+01  3.905E+01
2.562E+01  3.313E+01
3.438E+01  2.575E+01
4.558E+01  1.986E+01
6.307E+01  1.399E+01
8.568E+01  1.260E+01
1.193E+02  8.230E+00
