Reference: Inaniwa et al. (2018)
DOI: 10.1088/1361-6560/aabede
Model_Name: Kiefer-Chatterjee
Model_Version: stochastic
Core_Radius_Type: energy-dependent
Atomic_Number: 2
Domain_Radius_um: 0.28
Nucleus_Radius_um: 8.1
z0_Gy: 66.0
Data_Units: Energy [MeV/u], Dose-mean specific energy [Gy]
Data:
2.099E-01  1.332E+02
2.617E-01  1.258E+02
3.469E-01  1.199E+02
4.169E-01  1.140E+02
5.167E-01  9.909E+01
6.725E-01  8.571E+01
8.647E-01  7.233E+01
1.098E+00  6.195E+01
1.344E+00  5.453E+01
1.656E+00  4.713E+01
2.142E+00  3.824E+01
2.839E+00  2.936E+01
3.741E+00  2.347E+01
5.177E+00  1.760E+01
7.569E+00  1.175E+01
1.114E+01  8.894E+00
1.710E+01  6.052E+00
2.516E+01  3.195E+00
